# Freq.    Mag.
0          1.82121e-05
8          1.80443e-05
16         1.68097e-05
24         1.51967e-05
32         1.36349e-05
40         1.23985e-05
48         1.15691e-05
56         1.01073e-05
64         8.90224e-06
72         7.62662e-06
80         6.77776e-06
88         6.55887e-06
96         6.05906e-06
104        5.62834e-06
112        5.31855e-06
120        4.95665e-06
128        4.56327e-06
136        4.21637e-06
144        4.05679e-06
152        3.98798e-06
160        3.90849e-06
168        3.92991e-06
176        3.82985e-06
184        3.59682e-06
192        3.34933e-06
200        3.1786e-06
208        3.20047e-06
216        3.04033e-06
224        2.77706e-06
232        2.6343e-06
240        2.55284e-06
248        2.51845e-06
256        2.55381e-06
264        2.54951e-06
272        2.48012e-06
280        2.36547e-06
288        2.26516e-06
296        2.30428e-06
304        2.32351e-06
312        2.22374e-06
320        2.04285e-06
328        1.97052e-06
336        1.93778e-06
344        2.00855e-06
352        2.04293e-06
360        2.0901e-06
368        2.13812e-06
376        2.0651e-06
384        1.95888e-06
392        1.86108e-06
400        1.81511e-06
408        1.78065e-06
416        1.68717e-06
424        1.66612e-06
432        1.61283e-06
440        1.51846e-06
448        1.4098e-06
456        1.37147e-06
464        1.38843e-06
472        1.46235e-06
480        1.5439e-06
488        1.54633e-06
496        1.5167e-06
504        1.5105e-06
512        1.46954e-06
520        1.39379e-06
528        1.33694e-06
536        1.27931e-06
544        1.24504e-06
552        1.2224e-06
560        1.18257e-06
568        1.16464e-06
576        1.2304e-06
584        1.2632e-06
592        1.18691e-06
600        1.11505e-06
608        1.08492e-06
616        1.0611e-06
624        1.01953e-06
632        1.05072e-06
640        1.11964e-06
648        1.20095e-06
656        1.20131e-06
664        1.17869e-06
672        1.20596e-06
680        1.24052e-06
688        1.17947e-06
696        1.05662e-06
704        9.74544e-07
712        9.7313e-07
720        9.95374e-07
728        9.91971e-07
736        9.68728e-07
744        9.87961e-07
752        1.06486e-06
760        1.13756e-06
768        1.18591e-06
776        1.20906e-06
784        1.19968e-06
792        1.13923e-06
800        1.07114e-06
808        1.02338e-06
816        1.00928e-06
824        1.02748e-06
832        1.09546e-06
840        1.15478e-06
848        1.09007e-06
856        9.99076e-07
864        9.74417e-07
872        9.85195e-07
880        9.98848e-07
888        9.85395e-07
896        9.46052e-07
904        9.22362e-07
912        9.45692e-07
920        9.64817e-07
928        9.22451e-07
936        8.52251e-07
944        8.24409e-07
952        8.13634e-07
960        8.44324e-07
968        9.30031e-07
976        1.01055e-06
984        1.3513e-06
992        1.67682e-06
1000       1.69725e-06
1008       1.64321e-06
1016       1.23497e-06
1024       8.39037e-07
1032       8.04454e-07
1040       8.14795e-07
1048       8.53164e-07
1056       8.5455e-07
1064       8.54395e-07
1072       8.63589e-07
1080       8.59958e-07
1088       8.64341e-07
1096       8.41008e-07
1104       8.32574e-07
1112       8.0654e-07
1120       7.58667e-07
1128       7.59559e-07
1136       7.86912e-07
1144       8.21335e-07
1152       8.71822e-07
1160       9.09406e-07
1168       8.70287e-07
1176       7.74242e-07
1184       7.28884e-07
1192       7.89353e-07
1200       8.39936e-07
1208       8.10229e-07
1216       7.34133e-07
1224       7.01812e-07
1232       7.25277e-07
1240       7.82933e-07
1248       8.28036e-07
1256       8.5483e-07
1264       8.43798e-07
1272       8.05767e-07
1280       7.80228e-07
1288       7.62753e-07
1296       7.79804e-07
1304       8.00401e-07
1312       7.8597e-07
1320       7.91605e-07
1328       8.17663e-07
1336       8.28982e-07
1344       8.08331e-07
1352       7.73314e-07
1360       7.8446e-07
1368       8.08701e-07
1376       7.72452e-07
1384       7.21762e-07
1392       7.54037e-07
1400       8.18567e-07
1408       8.21912e-07
1416       7.84339e-07
1424       7.59127e-07
1432       7.38333e-07
1440       7.53446e-07
1448       7.85843e-07
1456       7.73238e-07
1464       7.58794e-07
1472       7.59375e-07
1480       7.62449e-07
1488       7.60615e-07
1496       7.55875e-07
1504       7.52269e-07
1512       7.40751e-07
1520       7.57979e-07
1528       7.35019e-07
1536       6.94728e-07
1544       6.92379e-07
1552       7.20476e-07
1560       7.4198e-07
1568       7.53007e-07
1576       7.84929e-07
1584       7.87237e-07
1592       7.36206e-07
1600       7.38863e-07
1608       7.85339e-07
1616       8.07585e-07
1624       7.87925e-07
1632       7.81473e-07
1640       7.54747e-07
1648       7.13405e-07
1656       7.04577e-07
1664       7.50755e-07
1672       8.02706e-07
1680       8.41482e-07
1688       8.47957e-07
1696       7.81996e-07
1704       7.1512e-07
1712       7.05456e-07
1720       7.17797e-07
1728       7.18736e-07
1736       7.24911e-07
1744       7.30444e-07
1752       7.55426e-07
1760       7.69193e-07
1768       7.25188e-07
1776       6.97346e-07
1784       6.97936e-07
1792       7.10772e-07
1800       7.39467e-07
1808       7.55464e-07
1816       7.15315e-07
1824       6.77898e-07
1832       6.70021e-07
1840       7.00814e-07
1848       7.31267e-07
1856       7.24095e-07
1864       7.14068e-07
1872       7.10784e-07
1880       7.24729e-07
1888       7.40969e-07
1896       7.36918e-07
1904       7.48965e-07
1912       7.72114e-07
1920       7.74036e-07
1928       7.63914e-07
1936       7.13966e-07
1944       6.70742e-07
1952       6.77931e-07
1960       7.19866e-07
1968       7.55092e-07
1976       7.86231e-07
1984       7.56362e-07
1992       6.75028e-07
2000       6.34742e-07
2008       6.46244e-07
2016       6.83315e-07
2024       7.02215e-07
2032       7.1948e-07
2040       7.29163e-07
2048       7.07593e-07
2056       6.96235e-07
2064       7.13496e-07
2072       7.40067e-07
2080       7.54621e-07
2088       7.38314e-07
2096       7.07334e-07
2104       6.958e-07 
2112       7.03092e-07
2120       6.94405e-07
2128       6.94112e-07
2136       7.2263e-07
2144       7.45507e-07
2152       7.38193e-07
2160       7.06452e-07
2168       6.85876e-07
2176       6.82909e-07
2184       7.01257e-07
2192       7.11171e-07
2200       6.92587e-07
2208       7.07716e-07
2216       7.31371e-07
2224       7.25728e-07
2232       7.22153e-07
2240       7.03646e-07
2248       6.67176e-07
2256       6.3161e-07
2264       6.19703e-07
2272       6.68262e-07
2280       7.41177e-07
2288       7.53251e-07
2296       7.02734e-07
2304       6.54153e-07
2312       6.85161e-07
2320       7.13205e-07
2328       7.20947e-07
2336       7.17612e-07
2344       6.58159e-07
2352       6.02875e-07
2360       6.06238e-07
2368       6.47988e-07
2376       7.24703e-07
2384       7.56349e-07
2392       7.50175e-07
2400       7.26079e-07
2408       6.77051e-07
2416       6.45156e-07
2424       6.69422e-07
2432       6.97603e-07
2440       7.35538e-07
2448       7.51096e-07
2456       7.31035e-07
2464       6.98857e-07
2472       6.53748e-07
2480       6.49515e-07
2488       6.54731e-07
2496       6.78904e-07
2504       7.139e-07 
2512       7.35811e-07
2520       7.30554e-07
2528       7.11318e-07
2536       7.12457e-07
2544       7.22359e-07
2552       7.28323e-07
2560       7.09113e-07
2568       6.78763e-07
2576       6.34696e-07
2584       6.09857e-07
2592       6.44335e-07
2600       6.86861e-07
2608       7.11612e-07
2616       7.11229e-07
2624       7.11635e-07
2632       7.11141e-07
2640       6.7944e-07
2648       6.2973e-07
2656       6.10234e-07
2664       6.23414e-07
2672       6.46631e-07
2680       6.60713e-07
2688       6.89481e-07
2696       6.93417e-07
2704       6.91019e-07
2712       6.48693e-07
2720       6.07295e-07
2728       6.41714e-07
2736       6.80617e-07
2744       6.79638e-07
2752       6.82728e-07
2760       6.83201e-07
2768       6.80315e-07
2776       6.9457e-07
2784       7.09888e-07
2792       7.18792e-07
2800       7.46557e-07
2808       7.30614e-07
2816       7.16366e-07
2824       7.20523e-07
2832       7.10864e-07
2840       6.90466e-07
2848       6.55398e-07
2856       6.33982e-07
2864       6.33093e-07
2872       6.37271e-07
2880       6.21472e-07
2888       6.42681e-07
2896       6.82984e-07
2904       7.13909e-07
2912       7.15059e-07
2920       6.96733e-07
2928       7.18353e-07
2936       7.6364e-07
2944       7.61885e-07
2952       7.54852e-07
2960       7.6931e-07
2968       7.64652e-07
2976       7.71225e-07
2984       8.36224e-07
2992       8.96339e-07
3000       9.00871e-07
3008       9.02398e-07
3016       8.1152e-07
3024       6.80039e-07
3032       5.97163e-07
3040       5.85446e-07
3048       6.23087e-07
3056       6.34089e-07
3064       6.4483e-07
3072       6.55073e-07
3080       6.65968e-07
3088       6.59397e-07
3096       6.57281e-07
3104       6.48862e-07
3112       6.49369e-07
3120       6.63112e-07
3128       6.66978e-07
3136       6.5244e-07
3144       6.32478e-07
3152       6.15167e-07
3160       6.18125e-07
3168       6.34279e-07
3176       6.53605e-07
3184       6.65819e-07
3192       6.69325e-07
3200       6.65949e-07
3208       6.46349e-07
3216       6.24526e-07
3224       6.27114e-07
3232       6.45401e-07
3240       6.42437e-07
3248       6.08127e-07
3256       5.79033e-07
3264       5.78368e-07
3272       6.08515e-07
3280       6.31284e-07
3288       6.47056e-07
3296       6.81475e-07
3304       6.84998e-07
3312       6.83092e-07
3320       6.80397e-07
3328       6.65365e-07
3336       6.62995e-07
3344       6.67101e-07
3352       6.71421e-07
3360       6.68065e-07
3368       6.75884e-07
3376       6.56015e-07
3384       6.19783e-07
3392       6.08176e-07
3400       6.42221e-07
3408       6.97771e-07
3416       7.29221e-07
3424       7.38755e-07
3432       7.42999e-07
3440       7.30722e-07
3448       6.97617e-07
3456       6.55975e-07
3464       6.30387e-07
3472       6.50032e-07
3480       6.65115e-07
3488       6.36884e-07
3496       6.07247e-07
3504       6.12555e-07
3512       6.04815e-07
3520       6.147e-07 
3528       6.65024e-07
3536       7.14194e-07
3544       7.27291e-07
3552       7.0859e-07
3560       6.67284e-07
3568       6.56552e-07
3576       6.83947e-07
3584       7.01373e-07
3592       7.126e-07 
3600       7.29519e-07
3608       7.30064e-07
3616       7.19916e-07
3624       6.98897e-07
3632       6.65359e-07
3640       6.34808e-07
3648       6.15877e-07
3656       5.98111e-07
3664       6.01595e-07
3672       6.42709e-07
3680       6.56853e-07
3688       6.34154e-07
3696       6.30825e-07
3704       6.48353e-07
3712       6.39326e-07
3720       6.14913e-07
3728       6.02945e-07
3736       6.36439e-07
3744       6.85713e-07
3752       7.15766e-07
3760       7.01111e-07
3768       6.79504e-07
3776       7.00799e-07
3784       7.08122e-07
3792       7.02218e-07
3800       7.02827e-07
3808       6.60962e-07
3816       5.98888e-07
3824       5.94782e-07
3832       6.1554e-07
3840       6.39853e-07
3848       6.57551e-07
3856       6.52312e-07
3864       6.3383e-07
3872       6.19654e-07
3880       6.39188e-07
3888       6.63138e-07
3896       6.97002e-07
3904       6.88459e-07
3912       6.63505e-07
3920       6.85505e-07
3928       7.1469e-07
3936       7.05577e-07
3944       6.7466e-07
3952       6.45499e-07
3960       5.92896e-07
3968       5.62293e-07
3976       5.85661e-07
3984       6.40999e-07
3992       6.80278e-07
4000       7.0639e-07
4008       7.24522e-07
4016       7.22859e-07
4024       7.20442e-07
4032       6.86053e-07
4040       6.05816e-07
4048       5.52486e-07
4056       5.60385e-07
4064       6.14885e-07
4072       6.78755e-07
4080       7.09597e-07
4088       6.95158e-07
4096       6.72166e-07
4104       6.4894e-07
4112       6.63763e-07
4120       7.13067e-07
4128       7.43704e-07
4136       7.34642e-07
4144       7.03613e-07
4152       6.73264e-07
4160       6.3992e-07
4168       6.03625e-07
4176       6.33176e-07
4184       7.09436e-07
4192       7.53887e-07
4200       7.69743e-07
4208       7.63934e-07
4216       7.43708e-07
4224       7.0841e-07
4232       6.8158e-07
4240       6.67887e-07
4248       6.63357e-07
4256       6.68923e-07
4264       6.43688e-07
4272       6.32595e-07
4280       6.34406e-07
4288       6.25731e-07
4296       6.20395e-07
4304       5.90061e-07
4312       5.9557e-07
4320       6.40854e-07
4328       6.57098e-07
4336       6.65605e-07
4344       6.84803e-07
4352       7.05241e-07
4360       6.93106e-07
4368       6.45975e-07
4376       6.10344e-07
4384       6.26549e-07
4392       6.55757e-07
4400       6.64222e-07
4408       6.65082e-07
4416       6.68927e-07
4424       6.69529e-07
4432       6.56535e-07
4440       6.25785e-07
4448       6.11644e-07
4456       6.10905e-07
4464       6.48665e-07
4472       6.73905e-07
4480       6.63844e-07
4488       6.39789e-07
4496       6.32404e-07
4504       6.76169e-07
4512       7.12992e-07
4520       7.27844e-07
4528       7.16402e-07
4536       7.12779e-07
4544       7.05304e-07
4552       7.08443e-07
4560       6.84574e-07
4568       6.48155e-07
4576       6.59398e-07
4584       7.04349e-07
4592       7.2369e-07
4600       6.8872e-07
4608       6.38256e-07
4616       6.25841e-07
4624       6.51668e-07
4632       6.71614e-07
4640       6.87137e-07
4648       6.91126e-07
4656       6.68532e-07
4664       6.58899e-07
4672       6.63865e-07
4680       6.56087e-07
4688       6.32007e-07
4696       6.06517e-07
4704       6.00546e-07
4712       6.1947e-07
4720       6.3037e-07
4728       6.67375e-07
4736       6.95665e-07
4744       6.89418e-07
4752       6.55712e-07
4760       6.1948e-07
4768       5.94165e-07
4776       5.7247e-07
4784       5.64703e-07
4792       5.85662e-07
4800       6.19562e-07
4808       6.62445e-07
4816       6.76217e-07
4824       6.47126e-07
4832       6.58872e-07
4840       7.05819e-07
4848       7.13566e-07
4856       6.76769e-07
4864       6.34866e-07
4872       6.15912e-07
4880       6.05184e-07
4888       6.21423e-07
4896       6.60218e-07
4904       6.62672e-07
4912       6.44366e-07
4920       6.17009e-07
4928       6.15212e-07
4936       6.49512e-07
4944       6.52617e-07
4952       6.59081e-07
4960       6.75293e-07
4968       6.61674e-07
4976       6.59809e-07
4984       7.00927e-07
4992       7.26974e-07
5000       7.05379e-07
5008       6.98864e-07
5016       6.86868e-07
5024       6.78377e-07
5032       6.86022e-07
5040       6.67524e-07
5048       6.29807e-07
5056       6.33781e-07
5064       6.37929e-07
5072       6.3137e-07
5080       6.25094e-07
5088       6.18902e-07
5096       6.30354e-07
5104       6.61802e-07
5112       6.77355e-07
5120       6.65834e-07
5128       6.47883e-07
5136       6.57969e-07
5144       6.49548e-07
5152       6.22724e-07
5160       6.17851e-07
5168       6.3072e-07
5176       6.59102e-07
5184       6.67718e-07
5192       6.36943e-07
5200       6.15348e-07
5208       6.26627e-07
5216       6.54021e-07
5224       6.77191e-07
5232       6.74846e-07
5240       6.51506e-07
5248       6.68093e-07
5256       6.81059e-07
5264       6.88354e-07
5272       6.93084e-07
5280       6.60786e-07
5288       6.42006e-07
5296       6.7013e-07
5304       7.13367e-07
5312       7.34102e-07
5320       7.24263e-07
5328       7.02977e-07
5336       6.78139e-07
5344       6.50934e-07
5352       6.51997e-07
5360       6.56727e-07
5368       6.51962e-07
5376       6.4235e-07
5384       6.35365e-07
5392       6.55984e-07
5400       6.84994e-07
5408       6.72842e-07
5416       6.67833e-07
5424       6.67562e-07
5432       6.40768e-07
5440       6.2364e-07
5448       6.18587e-07
5456       5.89084e-07
5464       5.37427e-07
5472       5.36498e-07
5480       6.17175e-07
5488       6.95978e-07
5496       7.2655e-07
5504       7.12322e-07
5512       6.80294e-07
5520       6.50189e-07
5528       6.50478e-07
5536       6.41764e-07
5544       6.32162e-07
5552       6.8126e-07
5560       7.16688e-07
5568       6.9845e-07
5576       6.72601e-07
5584       6.73965e-07
5592       6.80566e-07
5600       6.74395e-07
5608       6.62073e-07
5616       6.65872e-07
5624       6.86207e-07
5632       6.97127e-07
5640       7.34053e-07
5648       7.66419e-07
5656       7.76376e-07
5664       7.54599e-07
5672       7.26373e-07
5680       7.25722e-07
5688       7.3987e-07
5696       7.39277e-07
5704       7.03273e-07
5712       6.91217e-07
5720       6.99888e-07
5728       6.95841e-07
5736       6.80632e-07
5744       6.40846e-07
5752       6.28913e-07
5760       6.32603e-07
5768       6.40972e-07
5776       6.73875e-07
5784       6.84666e-07
5792       6.64637e-07
5800       6.67701e-07
5808       6.84835e-07
5816       7.07445e-07
5824       7.32476e-07
5832       7.63284e-07
5840       7.8883e-07
5848       7.51573e-07
5856       6.82184e-07
5864       6.53608e-07
5872       6.79634e-07
5880       6.93542e-07
5888       6.90596e-07
5896       6.63743e-07
5904       6.67775e-07
5912       7.27646e-07
5920       7.62346e-07
5928       7.68324e-07
5936       7.67146e-07
5944       7.82142e-07
5952       7.90087e-07
5960       7.43278e-07
5968       6.87077e-07
5976       6.93195e-07
5984       7.41338e-07
5992       7.82162e-07
6000       8.269e-07 
6008       8.46907e-07
6016       8.254e-07 
6024       7.86074e-07
6032       7.41116e-07
6040       6.86623e-07
6048       6.75035e-07
6056       7.06866e-07
6064       7.275e-07 
6072       7.45011e-07
6080       7.46305e-07
6088       7.39559e-07
6096       7.25741e-07
6104       7.19776e-07
6112       7.46317e-07
6120       7.42149e-07
6128       7.2102e-07
6136       7.41995e-07
6144       7.95104e-07
6152       8.36153e-07
6160       8.50751e-07
6168       8.35938e-07
6176       8.32556e-07
6184       8.42113e-07
6192       8.32205e-07
6200       8.11561e-07
6208       7.94861e-07
6216       7.76857e-07
6224       7.57675e-07
6232       7.60564e-07
6240       7.66282e-07
6248       7.77034e-07
6256       7.92376e-07
6264       8.08165e-07
6272       8.02923e-07
6280       7.87074e-07
6288       7.66444e-07
6296       7.60938e-07
6304       7.66477e-07
6312       7.73149e-07
6320       7.57028e-07
6328       6.97954e-07
6336       6.72456e-07
6344       7.50709e-07
6352       8.23209e-07
6360       8.30755e-07
6368       8.4302e-07
6376       8.29503e-07
6384       7.74364e-07
6392       7.4067e-07
6400       7.10457e-07
6408       6.55929e-07
6416       5.92479e-07
6424       5.90406e-07
6432       6.70537e-07
6440       7.26014e-07
6448       7.05935e-07
6456       7.0021e-07
6464       7.41831e-07
6472       7.79387e-07
6480       7.90667e-07
6488       7.98378e-07
6496       8.14871e-07
6504       8.09893e-07
6512       8.07162e-07
6520       7.86301e-07
6528       7.71109e-07
6536       7.87649e-07
6544       7.95033e-07
6552       7.83227e-07
6560       7.18116e-07
6568       6.57305e-07
6576       6.68437e-07
6584       7.01914e-07
6592       6.97202e-07
6600       6.83052e-07
6608       7.06528e-07
6616       7.70264e-07
6624       8.07606e-07
6632       8.16349e-07
6640       8.07752e-07
6648       7.94827e-07
6656       8.14671e-07
6664       8.05946e-07
6672       7.74464e-07
6680       7.00631e-07
6688       6.32894e-07
6696       6.44647e-07
6704       6.33628e-07
6712       6.01677e-07
6720       5.97466e-07
6728       6.09248e-07
6736       6.64622e-07
6744       7.33073e-07
6752       7.6677e-07
6760       7.77047e-07
6768       7.79941e-07
6776       7.65417e-07
6784       7.67927e-07
6792       7.65094e-07
6800       7.52098e-07
6808       7.47266e-07
6816       7.5645e-07
6824       7.63074e-07
6832       7.66729e-07
6840       7.677e-07 
6848       7.52378e-07
6856       7.39358e-07
6864       7.65597e-07
6872       7.7299e-07
6880       7.34352e-07
6888       6.80801e-07
6896       6.56515e-07
6904       6.73234e-07
6912       7.04475e-07
6920       7.40981e-07
6928       7.57765e-07
6936       7.53899e-07
6944       7.4973e-07
6952       7.39486e-07
6960       7.29851e-07
6968       7.06707e-07
