# Freq.    Mag.
0          2.03939e-05
8          1.97383e-05
16         1.78418e-05
24         1.59815e-05
32         1.45382e-05
40         1.28416e-05
48         1.16296e-05
56         1.036e-05 
64         9.05606e-06
72         8.24356e-06
80         7.43054e-06
88         7.12066e-06
96         7.0777e-06
104        6.72595e-06
112        6.24589e-06
120        5.76166e-06
128        5.43513e-06
136        5.06047e-06
144        4.7566e-06
152        4.32482e-06
160        3.78994e-06
168        3.60835e-06
176        3.55918e-06
184        3.57186e-06
192        3.51288e-06
200        3.30371e-06
208        3.09355e-06
216        2.83285e-06
224        2.60366e-06
232        2.34863e-06
240        2.23378e-06
248        2.34972e-06
256        2.40299e-06
264        2.44192e-06
272        2.47816e-06
280        2.46006e-06
288        2.36574e-06
296        2.10928e-06
304        1.88098e-06
312        1.90475e-06
320        2.0206e-06
328        2.07343e-06
336        2.07302e-06
344        2.0456e-06
352        1.97515e-06
360        1.94966e-06
368        1.91872e-06
376        1.90499e-06
384        1.82732e-06
392        1.64838e-06
400        1.58147e-06
408        1.63843e-06
416        1.58016e-06
424        1.56185e-06
432        1.58139e-06
440        1.61297e-06
448        1.61929e-06
456        1.55535e-06
464        1.51456e-06
472        1.47781e-06
480        1.44259e-06
488        1.44566e-06
496        1.42351e-06
504        1.3929e-06
512        1.3927e-06
520        1.38613e-06
528        1.38903e-06
536        1.35819e-06
544        1.27895e-06
552        1.2387e-06
560        1.29565e-06
568        1.3226e-06
576        1.36419e-06
584        1.37685e-06
592        1.33054e-06
600        1.34333e-06
608        1.32006e-06
616        1.28287e-06
624        1.22339e-06
632        1.15052e-06
640        1.09729e-06
648        1.17716e-06
656        1.34882e-06
664        1.42907e-06
672        1.39694e-06
680        1.29283e-06
688        1.22328e-06
696        1.18007e-06
704        1.09623e-06
712        1.06745e-06
720        1.08997e-06
728        1.11597e-06
736        1.12613e-06
744        1.10709e-06
752        1.07605e-06
760        1.12318e-06
768        1.15258e-06
776        1.15308e-06
784        1.14149e-06
792        1.10328e-06
800        1.09694e-06
808        1.08927e-06
816        1.0231e-06
824        9.77051e-07
832        1.01537e-06
840        1.07042e-06
848        1.04461e-06
856        9.76137e-07
864        9.41345e-07
872        8.97805e-07
880        8.69505e-07
888        8.96575e-07
896        9.50389e-07
904        9.48406e-07
912        9.18739e-07
920        8.73611e-07
928        8.55316e-07
936        8.80556e-07
944        9.02513e-07
952        9.14188e-07
960        8.7818e-07
968        8.38684e-07
976        8.87203e-07
984        1.23757e-06
992        1.58026e-06
1000       1.6465e-06
1008       1.66157e-06
1016       1.36427e-06
1024       1.02138e-06
1032       9.15474e-07
1040       8.84841e-07
1048       8.72559e-07
1056       8.40054e-07
1064       8.45622e-07
1072       8.52951e-07
1080       8.41212e-07
1088       8.71802e-07
1096       9.20725e-07
1104       9.71008e-07
1112       9.76554e-07
1120       9.24761e-07
1128       8.77374e-07
1136       8.73564e-07
1144       8.96724e-07
1152       8.81362e-07
1160       8.45382e-07
1168       8.63267e-07
1176       8.86907e-07
1184       8.83354e-07
1192       8.64288e-07
1200       8.39274e-07
1208       8.09105e-07
1216       7.72028e-07
1224       7.38686e-07
1232       7.36268e-07
1240       7.54875e-07
1248       8.26633e-07
1256       8.69114e-07
1264       8.86938e-07
1272       9.01974e-07
1280       8.73625e-07
1288       8.51497e-07
1296       8.46978e-07
1304       8.16654e-07
1312       7.85566e-07
1320       7.64428e-07
1328       7.39997e-07
1336       7.23931e-07
1344       7.6857e-07
1352       8.22429e-07
1360       8.05951e-07
1368       7.66155e-07
1376       7.32365e-07
1384       7.39601e-07
1392       7.70088e-07
1400       8.05918e-07
1408       8.35889e-07
1416       8.34254e-07
1424       8.1203e-07
1432       7.92459e-07
1440       7.92868e-07
1448       7.83635e-07
1456       7.71482e-07
1464       7.53937e-07
1472       7.2674e-07
1480       7.11014e-07
1488       7.08343e-07
1496       7.09278e-07
1504       7.23121e-07
1512       7.18986e-07
1520       7.52984e-07
1528       8.04708e-07
1536       8.33302e-07
1544       8.41915e-07
1552       8.37787e-07
1560       8.25503e-07
1568       7.9675e-07
1576       7.69642e-07
1584       7.76453e-07
1592       7.95009e-07
1600       7.9153e-07
1608       7.45107e-07
1616       6.95035e-07
1624       7.1731e-07
1632       7.39507e-07
1640       7.55217e-07
1648       7.83325e-07
1656       7.94527e-07
1664       7.54574e-07
1672       6.98344e-07
1680       6.67317e-07
1688       6.72428e-07
1696       7.06069e-07
1704       7.56132e-07
1712       7.85937e-07
1720       7.85241e-07
1728       7.7056e-07
1736       7.31373e-07
1744       7.28963e-07
1752       7.82358e-07
1760       8.07127e-07
1768       8.23777e-07
1776       8.37465e-07
1784       8.00506e-07
1792       7.25192e-07
1800       6.63166e-07
1808       6.59063e-07
1816       6.90421e-07
1824       7.10481e-07
1832       7.61176e-07
1840       7.95641e-07
1848       7.76151e-07
1856       7.45793e-07
1864       7.34188e-07
1872       7.43348e-07
1880       7.50175e-07
1888       7.3554e-07
1896       7.22008e-07
1904       7.00456e-07
1912       6.80088e-07
1920       6.47945e-07
1928       6.57638e-07
1936       6.56386e-07
1944       6.55174e-07
1952       6.82943e-07
1960       6.94527e-07
1968       7.27128e-07
1976       7.37989e-07
1984       6.97879e-07
1992       6.56026e-07
2000       6.55449e-07
2008       6.83689e-07
2016       7.11626e-07
2024       7.02338e-07
2032       6.72182e-07
2040       6.52429e-07
2048       6.47127e-07
2056       6.77566e-07
2064       7.0977e-07
2072       7.0016e-07
2080       6.81026e-07
2088       6.57461e-07
2096       6.52389e-07
2104       6.93666e-07
2112       7.07706e-07
2120       7.04916e-07
2128       6.88937e-07
2136       6.59853e-07
2144       6.43623e-07
2152       6.54406e-07
2160       6.86134e-07
2168       7.26049e-07
2176       7.39917e-07
2184       7.21203e-07
2192       7.59523e-07
2200       7.72435e-07
2208       7.46087e-07
2216       7.32234e-07
2224       6.79352e-07
2232       6.4257e-07
2240       6.51183e-07
2248       7.15679e-07
2256       7.67601e-07
2264       7.84157e-07
2272       7.45154e-07
2280       6.84874e-07
2288       6.66264e-07
2296       6.78192e-07
2304       7.00766e-07
2312       7.15564e-07
2320       6.92135e-07
2328       6.71274e-07
2336       6.71148e-07
2344       6.94135e-07
2352       7.08534e-07
2360       7.01325e-07
2368       7.02925e-07
2376       7.2317e-07
2384       7.25154e-07
2392       7.17944e-07
2400       7.14264e-07
2408       6.98348e-07
2416       6.92091e-07
2424       7.0054e-07
2432       7.09166e-07
2440       7.00518e-07
2448       6.82799e-07
2456       6.96985e-07
2464       6.96391e-07
2472       6.9624e-07
2480       6.95131e-07
2488       6.83411e-07
2496       6.54971e-07
2504       6.39712e-07
2512       6.57032e-07
2520       6.90342e-07
2528       7.06428e-07
2536       6.79135e-07
2544       6.66221e-07
2552       6.73916e-07
2560       6.82045e-07
2568       6.71617e-07
2576       6.76392e-07
2584       7.36034e-07
2592       7.31764e-07
2600       6.81063e-07
2608       6.87065e-07
2616       7.20474e-07
2624       7.37548e-07
2632       7.22999e-07
2640       7.02143e-07
2648       6.6337e-07
2656       6.49867e-07
2664       6.59307e-07
2672       6.67487e-07
2680       7.06329e-07
2688       7.38671e-07
2696       7.40572e-07
2704       7.24967e-07
2712       6.87735e-07
2720       6.57856e-07
2728       6.53192e-07
2736       6.39005e-07
2744       6.19348e-07
2752       6.12118e-07
2760       6.50645e-07
2768       7.19621e-07
2776       7.45241e-07
2784       7.04908e-07
2792       6.48898e-07
2800       6.11871e-07
2808       6.19299e-07
2816       6.32681e-07
2824       6.3212e-07
2832       6.37141e-07
2840       6.55409e-07
2848       6.4629e-07
2856       6.63407e-07
2864       7.01865e-07
2872       7.15011e-07
2880       6.99798e-07
2888       6.97123e-07
2896       6.82325e-07
2904       6.80299e-07
2912       7.14617e-07
2920       7.09872e-07
2928       7.00515e-07
2936       6.73269e-07
2944       6.40048e-07
2952       6.23431e-07
2960       6.16724e-07
2968       6.44178e-07
2976       6.99504e-07
2984       7.82384e-07
2992       8.62718e-07
3000       8.46161e-07
3008       7.91457e-07
3016       7.00177e-07
3024       6.59456e-07
3032       6.58111e-07
3040       6.78216e-07
3048       6.90644e-07
3056       6.8077e-07
3064       6.47473e-07
3072       5.96648e-07
3080       5.74797e-07
3088       5.96206e-07
3096       6.29214e-07
3104       6.84133e-07
3112       7.26231e-07
3120       7.26353e-07
3128       6.94047e-07
3136       6.58141e-07
3144       6.50557e-07
3152       6.52151e-07
3160       6.40408e-07
3168       6.39664e-07
3176       6.37999e-07
3184       6.33536e-07
3192       6.28827e-07
3200       6.48625e-07
3208       6.47659e-07
3216       6.29152e-07
3224       6.38684e-07
3232       6.6686e-07
3240       6.68524e-07
3248       6.3375e-07
3256       6.12113e-07
3264       6.31537e-07
3272       6.73661e-07
3280       6.78032e-07
3288       6.45905e-07
3296       6.46269e-07
3304       6.71138e-07
3312       6.87818e-07
3320       6.44116e-07
3328       5.92178e-07
3336       5.96198e-07
3344       6.31922e-07
3352       6.71058e-07
3360       6.81416e-07
3368       6.97896e-07
3376       7.25738e-07
3384       7.3391e-07
3392       7.18393e-07
3400       6.92326e-07
3408       6.77067e-07
3416       6.64485e-07
3424       6.84477e-07
3432       7.2062e-07
3440       7.39234e-07
3448       7.00848e-07
3456       6.51233e-07
3464       6.02842e-07
3472       6.08567e-07
3480       6.52619e-07
3488       6.63609e-07
3496       6.69931e-07
3504       6.56321e-07
3512       6.38177e-07
3520       6.57006e-07
3528       6.90674e-07
3536       7.16928e-07
3544       7.48465e-07
3552       7.58727e-07
3560       7.4052e-07
3568       6.72424e-07
3576       6.09677e-07
3584       5.94428e-07
3592       5.88077e-07
3600       5.78943e-07
3608       5.92572e-07
3616       6.26255e-07
3624       6.54818e-07
3632       6.61196e-07
3640       6.65839e-07
3648       6.449e-07 
3656       6.05979e-07
3664       6.17912e-07
3672       6.7267e-07
3680       7.23214e-07
3688       7.35042e-07
3696       7.03972e-07
3704       6.5917e-07
3712       5.98549e-07
3720       5.88588e-07
3728       6.08938e-07
3736       6.08298e-07
3744       6.18152e-07
3752       6.58434e-07
3760       7.1593e-07
3768       7.46707e-07
3776       6.97255e-07
3784       6.32786e-07
3792       6.02147e-07
3800       6.353e-07 
3808       6.55879e-07
3816       6.38777e-07
3824       6.16261e-07
3832       6.06381e-07
3840       6.29082e-07
3848       6.57569e-07
3856       6.5583e-07
3864       6.57414e-07
3872       6.29004e-07
3880       6.13301e-07
3888       6.53227e-07
3896       6.51693e-07
3904       6.21245e-07
3912       5.59411e-07
3920       5.44119e-07
3928       5.74881e-07
3936       6.05751e-07
3944       6.37147e-07
3952       6.65768e-07
3960       7.01472e-07
3968       6.98871e-07
3976       6.91015e-07
3984       6.99534e-07
3992       6.69435e-07
4000       6.46076e-07
4008       6.52815e-07
4016       6.75751e-07
4024       6.90123e-07
4032       6.75122e-07
4040       6.7433e-07
4048       6.88021e-07
4056       6.61234e-07
4064       6.57549e-07
4072       6.69192e-07
4080       6.77848e-07
4088       6.78325e-07
4096       6.47229e-07
4104       6.14781e-07
4112       6.05229e-07
4120       6.02554e-07
4128       5.96806e-07
4136       6.0157e-07
4144       6.04527e-07
4152       6.08612e-07
4160       6.2172e-07
4168       6.49707e-07
4176       6.84608e-07
4184       6.97349e-07
4192       6.83691e-07
4200       6.85203e-07
4208       7.09898e-07
4216       6.95434e-07
4224       6.44715e-07
4232       6.20937e-07
4240       6.03774e-07
4248       6.14447e-07
4256       6.3105e-07
4264       6.54504e-07
4272       6.94024e-07
4280       6.94435e-07
4288       6.44189e-07
4296       5.85562e-07
4304       5.68387e-07
4312       5.85126e-07
4320       6.18021e-07
4328       6.55848e-07
4336       7.11311e-07
4344       7.32647e-07
4352       7.18435e-07
4360       7.07324e-07
4368       7.04649e-07
4376       7.2238e-07
4384       7.45046e-07
4392       7.33321e-07
4400       6.93559e-07
4408       6.5505e-07
4416       6.36523e-07
4424       6.64745e-07
4432       6.86445e-07
4440       6.77943e-07
4448       6.65792e-07
4456       6.3421e-07
4464       6.50541e-07
4472       6.73683e-07
4480       6.78077e-07
4488       6.94035e-07
4496       6.97656e-07
4504       7.00561e-07
4512       7.11823e-07
4520       7.03464e-07
4528       6.88006e-07
4536       6.81526e-07
4544       6.80106e-07
4552       6.63648e-07
4560       6.75624e-07
4568       7.19168e-07
4576       7.11368e-07
4584       6.41382e-07
4592       5.83381e-07
4600       5.86524e-07
4608       6.27169e-07
4616       6.84938e-07
4624       7.28137e-07
4632       7.17022e-07
4640       7.20148e-07
4648       7.17523e-07
4656       6.95473e-07
4664       6.90869e-07
4672       6.81903e-07
4680       6.8524e-07
4688       6.57985e-07
4696       6.28534e-07
4704       6.43298e-07
4712       6.58491e-07
4720       6.82501e-07
4728       7.20922e-07
4736       7.3262e-07
4744       7.05777e-07
4752       6.53137e-07
4760       5.98164e-07
4768       5.94498e-07
4776       6.27085e-07
4784       6.20662e-07
4792       6.49349e-07
4800       6.55781e-07
4808       6.42815e-07
4816       6.26496e-07
4824       6.19393e-07
4832       6.73722e-07
4840       7.35262e-07
4848       7.46109e-07
4856       7.3188e-07
4864       6.87021e-07
4872       6.43965e-07
4880       6.57624e-07
4888       7.01681e-07
4896       6.97832e-07
4904       6.47308e-07
4912       6.07593e-07
4920       6.16797e-07
4928       6.30076e-07
4936       6.35388e-07
4944       6.44965e-07
4952       6.59684e-07
4960       6.61371e-07
4968       6.54719e-07
4976       6.78121e-07
4984       6.89262e-07
4992       7.201e-07 
5000       7.25278e-07
5008       7.44692e-07
5016       7.59204e-07
5024       7.45466e-07
5032       7.27104e-07
5040       7.1201e-07
5048       6.90027e-07
5056       6.79626e-07
5064       6.85342e-07
5072       6.70601e-07
5080       6.912e-07 
5088       6.93503e-07
5096       6.6338e-07
5104       6.66298e-07
5112       6.9277e-07
5120       7.20409e-07
5128       7.0812e-07
5136       6.82644e-07
5144       6.80082e-07
5152       6.84983e-07
5160       6.97419e-07
5168       6.86808e-07
5176       6.69391e-07
5184       6.67131e-07
5192       6.63812e-07
5200       6.53841e-07
5208       6.64037e-07
5216       6.87112e-07
5224       6.8918e-07
5232       6.53805e-07
5240       6.10906e-07
5248       5.90336e-07
5256       6.20222e-07
5264       6.49594e-07
5272       6.54811e-07
5280       6.66752e-07
5288       7.07621e-07
5296       7.3383e-07
5304       7.25398e-07
5312       6.69325e-07
5320       6.30308e-07
5328       6.25906e-07
5336       6.04333e-07
5344       6.24376e-07
5352       6.45736e-07
5360       6.3593e-07
5368       6.36175e-07
5376       6.26e-07  
5384       6.31706e-07
5392       6.48692e-07
5400       6.60705e-07
5408       6.96062e-07
5416       7.16018e-07
5424       6.84244e-07
5432       6.57041e-07
5440       6.76189e-07
5448       6.81798e-07
5456       6.55189e-07
5464       6.21056e-07
5472       5.94223e-07
5480       5.69397e-07
5488       5.62246e-07
5496       5.89509e-07
5504       6.22771e-07
5512       6.46592e-07
5520       6.51991e-07
5528       6.56155e-07
5536       6.63852e-07
5544       6.94189e-07
5552       7.19069e-07
5560       7.23644e-07
5568       7.2846e-07
5576       7.3226e-07
5584       7.4668e-07
5592       7.55397e-07
5600       7.18181e-07
5608       6.67473e-07
5616       6.67382e-07
5624       7.01751e-07
5632       7.1202e-07
5640       6.86871e-07
5648       6.52774e-07
5656       6.21238e-07
5664       6.1715e-07
5672       6.5488e-07
5680       6.74235e-07
5688       6.5922e-07
5696       6.29302e-07
5704       6.16502e-07
5712       6.27937e-07
5720       6.25147e-07
5728       6.21456e-07
5736       6.05877e-07
5744       6.06261e-07
5752       6.25753e-07
5760       6.51744e-07
5768       6.58755e-07
5776       6.55051e-07
5784       6.30131e-07
5792       6.4991e-07
5800       6.88668e-07
5808       6.91448e-07
5816       6.74269e-07
5824       6.41087e-07
5832       6.33053e-07
5840       6.41713e-07
5848       6.6693e-07
5856       6.69564e-07
5864       6.42139e-07
5872       6.08398e-07
5880       6.06656e-07
5888       6.3011e-07
5896       6.54553e-07
5904       6.63193e-07
5912       6.41723e-07
5920       6.55862e-07
5928       6.84786e-07
5936       6.97912e-07
5944       6.90941e-07
5952       6.85198e-07
5960       6.87977e-07
5968       7.00289e-07
5976       7.30063e-07
5984       7.35507e-07
5992       7.04208e-07
6000       6.67368e-07
6008       6.47934e-07
6016       6.43487e-07
6024       6.50269e-07
6032       6.70684e-07
6040       6.9752e-07
6048       6.85954e-07
6056       6.51862e-07
6064       6.3349e-07
6072       6.65437e-07
6080       7.22393e-07
6088       7.41125e-07
6096       7.09942e-07
6104       6.80972e-07
6112       6.83643e-07
6120       7.06654e-07
6128       7.09823e-07
6136       6.98736e-07
6144       6.70438e-07
6152       6.63907e-07
6160       6.88826e-07
6168       7.06504e-07
6176       6.97679e-07
6184       6.74325e-07
6192       6.36808e-07
6200       6.38742e-07
6208       6.83579e-07
6216       7.08693e-07
6224       7.09353e-07
6232       7.03044e-07
6240       6.82254e-07
6248       6.72297e-07
6256       6.97682e-07
6264       7.0698e-07
6272       6.76903e-07
6280       6.27835e-07
6288       6.1859e-07
6296       6.27811e-07
6304       6.22861e-07
6312       6.42746e-07
6320       6.57274e-07
6328       6.91439e-07
6336       7.44328e-07
6344       7.70055e-07
6352       7.52431e-07
6360       7.17869e-07
6368       7.13433e-07
6376       7.45221e-07
6384       7.51773e-07
6392       7.46257e-07
6400       7.68524e-07
6408       7.73805e-07
6416       7.45188e-07
6424       6.98792e-07
6432       6.89669e-07
6440       6.99738e-07
6448       7.15923e-07
6456       7.12151e-07
6464       6.79058e-07
6472       6.66772e-07
6480       7.19913e-07
6488       7.96087e-07
6496       8.10237e-07
6504       7.60401e-07
6512       7.40408e-07
6520       7.59749e-07
6528       7.50795e-07
6536       7.54144e-07
6544       7.86597e-07
6552       7.72366e-07
6560       7.57603e-07
6568       7.667e-07 
6576       7.55417e-07
6584       7.35391e-07
6592       7.36655e-07
6600       7.42862e-07
6608       7.52434e-07
6616       7.44707e-07
6624       7.40107e-07
6632       7.1465e-07
6640       6.83787e-07
6648       6.57013e-07
6656       6.51385e-07
6664       6.62569e-07
6672       6.74729e-07
6680       6.7056e-07
6688       6.84631e-07
6696       7.20589e-07
6704       7.61107e-07
6712       7.45611e-07
6720       7.23427e-07
6728       7.11233e-07
6736       6.93426e-07
6744       7.54941e-07
6752       8.44311e-07
6760       8.7117e-07
6768       8.25868e-07
6776       7.50473e-07
6784       6.96438e-07
6792       6.81449e-07
6800       7.08289e-07
6808       7.62336e-07
6816       7.95503e-07
6824       8.18109e-07
6832       8.3986e-07
6840       8.43031e-07
6848       8.31112e-07
6856       8.27957e-07
6864       8.11746e-07
6872       7.96863e-07
6880       7.92309e-07
6888       7.93455e-07
6896       7.99356e-07
6904       7.77909e-07
6912       7.76483e-07
6920       8.13812e-07
6928       8.25648e-07
6936       7.95198e-07
6944       7.31198e-07
6952       6.81418e-07
6960       6.8485e-07
6968       6.86574e-07
