# Freq.    Re    Im
0.999987   19.614     -0.195518 
1.01448    19.6085    -0.192523 
1.02919    19.6029    -0.18953  
1.04411    19.5973    -0.186538 
1.05924    19.5918    -0.183548 
1.07459    19.5862    -0.18056  
1.09017    19.5895    -0.175721 
1.10597    19.5928    -0.170881 
1.122      19.5961    -0.166039 
1.13827    19.5994    -0.161195 
1.15477    19.6027    -0.15635  
1.17151    19.5999    -0.153575 
1.18849    19.5971    -0.150801 
1.20571    19.5943    -0.148027 
1.22319    19.5915    -0.145255 
1.24092    19.5888    -0.142483 
1.25891    19.5831    -0.139424 
1.27716    19.5775    -0.136366 
1.29567    19.5718    -0.13331  
1.31445    19.5662    -0.130256 
1.3335     19.5606    -0.127203 
1.35283    19.5643    -0.123663 
1.37244    19.5681    -0.120121 
1.39234    19.5718    -0.116578 
1.41252    19.5755    -0.113034 
1.43299    19.5793    -0.109488 
1.45377    19.5739    -0.106172 
1.47484    19.5684    -0.102858 
1.49622    19.5629    -0.0995452
1.5179     19.5575    -0.0962346
1.53991    19.552     -0.0929257
1.56223    19.5498    -0.0870151
1.58487    19.5475    -0.0811059
1.60785    19.5453    -0.0751981
1.63115    19.543     -0.0692916
1.6548     19.5408    -0.0633866
1.67878    19.5382    -0.0584193
1.70312    19.5356    -0.0534533
1.7278     19.533     -0.0484886
1.75285    19.5304    -0.0435253
1.77826    19.5279    -0.0385633
1.80403    19.5269    -0.0503818
1.83018    19.526     -0.0621993
1.85671    19.5251    -0.0740156
1.88362    19.5241    -0.0858308
1.91093    19.5232    -0.0976449
1.93863    19.5288    -0.0920952
1.96673    19.5345    -0.0865422
1.99524    19.5402    -0.0809861
2.02416    19.5459    -0.0754266
2.0535     19.5516    -0.069864 
2.08326    19.5357    -0.0676274
2.11346    19.5199    -0.0653944
2.1441     19.5041    -0.0631649
2.17518    19.4883    -0.060939 
2.20671    19.4725    -0.0587167
2.23869    19.4898    -0.0504007
2.27114    19.5071    -0.04207  
2.30406    19.5244    -0.0337244
2.33746    19.5417    -0.0253639
2.37134    19.559     -0.0169886
2.40572    19.5556    -0.00846074
2.44059    19.5522    6.42014e-05
2.47596    19.5488    0.00858617
2.51185    19.5454    0.0171052 
2.54826    19.542     0.0256212 
2.5852     19.5392    0.0233887 
2.62267    19.5364    0.0211568 
2.66069    19.5336    0.0189256 
2.69926    19.5308    0.0166949 
2.73838    19.528     0.014465  
2.77808    19.5186    0.00582041
2.81835    19.5092    -0.00281583
2.8592     19.4997    -0.0114437
2.90064    19.4903    -0.0200633
2.94269    19.4809    -0.0286746
2.98534    19.4845    -0.0265515
3.02862    19.4881    -0.0244276
3.07252    19.4917    -0.0223029
3.11705    19.4953    -0.0201774
3.16224    19.4989    -0.0180512
3.20807    19.4977    -0.0139207
3.25458    19.4964    -0.0097907
3.30175    19.4951    -0.00566127
3.34961    19.4938    -0.00153237
3.39816    19.4926    0.00259599
3.44742    19.5051    0.011409  
3.49739    19.5176    0.0202333 
3.54809    19.5302    0.029069  
3.59952    19.5427    0.037916  
3.65169    19.5553    0.0467743 
3.70463    19.5432    0.0427151 
3.75833    19.5311    0.0386608 
3.8128     19.519     0.0346116 
3.86807    19.5069    0.0305674 
3.92414    19.4949    0.0265281 
3.98102    19.4959    0.0265628 
4.03873    19.4969    0.0265975 
4.09727    19.4979    0.0266323 
4.15666    19.4989    0.026667  
4.21691    19.4999    0.0267017 
4.27804    19.5033    0.0328494 
4.34005    19.5067    0.0389993 
4.40296    19.5101    0.0451514 
4.46678    19.5135    0.0513056 
4.53153    19.517     0.057462  
4.59721    19.5099    0.0514292 
4.66385    19.5027    0.0454007 
4.73145    19.4956    0.0393767 
4.80004    19.4885    0.0333571 
4.86961    19.4814    0.0273419 
4.9402     19.4953    0.0469556 
5.01181    19.5092    0.0665972 
5.08446    19.523     0.0862669 
5.15816    19.5369    0.105965  
5.23292    19.5508    0.12569   
5.30878    19.5447    0.119331  
5.38573    19.5387    0.112975  
5.4638     19.5326    0.106623  
5.54299    19.5266    0.100276  
5.62334    19.5205    0.093932  
5.70485    19.518     0.0939647 
5.78755    19.5155    0.0939975 
5.87144    19.5129    0.0940302 
5.95654    19.5103    0.0940629 
6.04289    19.5078    0.0940955 
6.13048    19.5053    0.0868377 
6.21934    19.5028    0.0795817 
6.30949    19.5003    0.0723276 
6.40095    19.4978    0.0650753 
6.49373    19.4954    0.0578249 
6.58786    19.5053    0.0628011 
6.68335    19.5152    0.0677824 
6.78023    19.5251    0.0727687 
6.87851    19.535     0.0777601 
6.97822    19.545     0.0827566 
7.07937    19.5392    0.103049  
7.18198    19.5334    0.123329  
7.28609    19.5276    0.143597  
7.3917     19.5217    0.163853  
7.49885    19.5159    0.184097  
7.60754    19.5293    0.176314  
7.71782    19.5427    0.168519  
7.82969    19.5561    0.160714  
7.94318    19.5695    0.152898  
8.05832    19.583     0.145072  
8.17513    19.5898    0.136869  
8.29363    19.5966    0.128661  
8.41384    19.6034    0.120448  
8.5358     19.6102    0.112228  
8.65953    19.617     0.104003  
8.78505    19.6053    0.117492  
8.91239    19.5936    0.130964  
9.04158    19.5819    0.14442   
9.17264    19.5702    0.157861  
9.3056     19.5585    0.171285  
9.44049    19.5489    0.169589  
9.57733    19.5394    0.167895  
9.71615    19.5298    0.166203  
9.85699    19.5203    0.164512  
9.99987    19.5108    0.162824  
10.1448    19.51      0.174886  
10.2919    19.5093    0.186947  
10.4411    19.5086    0.199008  
10.5924    19.5078    0.211068  
10.7459    19.507     0.223127  
10.9017    19.5143    0.225769  
11.0597    19.5215    0.228414  
11.22      19.5287    0.231061  
11.3827    19.536     0.233709  
11.5477    19.5432    0.23636   
11.7151    19.5459    0.238627  
11.8849    19.5486    0.240895  
12.0571    19.5512    0.243163  
12.2319    19.5539    0.245433  
12.4092    19.5566    0.247703  
12.5891    19.5712    0.242229  
12.7716    19.5857    0.236747  
12.9567    19.6003    0.231256  
13.1445    19.6149    0.225757  
13.335     19.6295    0.220251  
13.5283    19.6145    0.252894  
13.7244    19.5994    0.285488  
13.9234    19.5842    0.318032  
14.1252    19.569     0.350527  
14.3299    19.5538    0.382972  
14.5377    19.55      0.347288  
14.7484    19.5461    0.31162   
14.9622    19.5422    0.275966  
15.179     19.5382    0.240328  
15.3991    19.5342    0.204705  
15.6223    19.5289    0.220442  
15.8487    19.5236    0.23617   
16.0785    19.5183    0.25189   
16.3115    19.513     0.267601  
16.548     19.5077    0.283304  
16.7878    19.5207    0.302142  
17.0312    19.5337    0.321005  
17.278     19.5466    0.339894  
17.5285    19.5596    0.358807  
17.7826    19.5725    0.377746  
18.0403    19.5898    0.373668  
18.3018    19.6071    0.369582  
18.5671    19.6244    0.365489  
18.8362    19.6418    0.361388  
19.1093    19.6591    0.35728   
19.3863    19.6533    0.365694  
19.6673    19.6474    0.374103  
19.9524    19.6416    0.382506  
20.2416    19.6357    0.390905  
20.535     19.6299    0.399299  
20.8326    19.6394    0.416133  
21.1346    19.6489    0.432983  
21.441     19.6583    0.44985   
21.7518    19.6678    0.466733  
22.0671    19.6773    0.483633  
22.3869    19.6621    0.476145  
22.7114    19.647     0.468668  
23.0406    19.6319    0.461203  
23.3746    19.6168    0.453749  
23.7134    19.6017    0.446307  
24.0572    19.619     0.438087  
24.4059    19.6363    0.429851  
24.7596    19.6536    0.421601  
25.1185    19.671     0.413336  
25.4826    19.6883    0.405056  
25.852     19.6671    0.414932  
26.2267    19.646     0.424787  
26.6069    19.6248    0.434621  
26.9926    19.6037    0.444432  
27.3838    19.5826    0.454223  
27.7808    19.5965    0.443862  
28.1835    19.6105    0.433486  
28.592     19.6245    0.423096  
29.0064    19.6384    0.41269   
29.4269    19.6524    0.40227   
29.8534    19.6659    0.448104  
30.2862    19.6793    0.494003  
30.7252    19.6926    0.539966  
31.1705    19.7058    0.585994  
31.6224    19.7189    0.632086  
32.0807    19.6956    0.631772  
32.5458    19.6723    0.631458  
33.0175    19.6491    0.631144  
33.4961    19.6259    0.630829  
33.9816    19.6027    0.630515  
34.4742    19.6174    0.621706  
34.9739    19.6321    0.612883  
35.4809    19.6468    0.604046  
35.9952    19.6615    0.595197  
36.5169    19.6762    0.586333  
37.0463    19.6769    0.601498  
37.5833    19.6776    0.616664  
38.128     19.6783    0.631832  
38.6807    19.6791    0.647001  
39.2414    19.6797    0.662172  
39.8102    19.6871    0.66265   
40.3873    19.6944    0.663128  
40.9727    19.7018    0.663607  
41.5666    19.7091    0.664086  
42.1691    19.7164    0.664566  
42.7804    19.7248    0.698455  
43.4005    19.7331    0.732374  
44.0296    19.7414    0.766324  
44.6678    19.7496    0.800304  
45.3153    19.7577    0.834316  
45.9721    19.7261    0.821268  
46.6385    19.6944    0.80826   
47.3145    19.6628    0.795292  
48.0004    19.6313    0.782363  
48.6961    19.5998    0.769475  
49.402     19.6101    0.791934  
50.1181    19.6204    0.814419  
50.8446    19.6307    0.836928  
51.5816    19.6409    0.859461  
52.3292    19.6512    0.882018  
53.0878    19.6653    0.893766  
53.8573    19.6794    0.905531  
54.638     19.6935    0.917311  
55.4299    19.7076    0.929109  
56.2334    19.7217    0.940924  
57.0485    19.7064    0.939759  
57.8755    19.6911    0.938594  
58.7144    19.6759    0.937431  
59.5654    19.6606    0.93627   
60.4289    19.6454    0.93511   
61.3048    19.6567    0.955781  
62.1934    19.6679    0.976477  
63.0949    19.6791    0.997197  
64.0095    19.6903    1.01794   
64.9373    19.7015    1.03871   
65.8786    19.6788    1.0699    
66.8335    19.6561    1.10102   
67.8023    19.6333    1.13207   
68.7851    19.6105    1.16304   
69.7822    19.5876    1.19395   
70.7937    19.587     1.19995   
71.8198    19.5864    1.20595   
72.8609    19.5858    1.21195   
73.917     19.5852    1.21795   
74.9885    19.5847    1.22395   
76.0754    19.59      1.25343   
77.1782    19.5953    1.28293   
78.2969    19.6005    1.31245   
79.4318    19.6057    1.34198   
80.5832    19.6109    1.37154   
81.7513    19.6183    1.38601   
82.9363    19.6258    1.40049   
84.1384    19.6333    1.41498   
85.358     19.6407    1.42948   
86.5953    19.6482    1.444     
87.8505    19.6433    1.44441   
89.1239    19.6385    1.44483   
90.4158    19.6336    1.44524   
91.7264    19.6288    1.44565   
93.056     19.6239    1.44606   
94.4049    19.646     1.49249   
95.7733    19.668     1.53902   
97.1615    19.6899    1.58567   
98.5699    19.7117    1.63242   
99.9987    19.7335    1.67929   
101.448    19.6886    1.67513   
102.919    19.6438    1.67098   
104.411    19.5991    1.66684   
105.924    19.5544    1.6627    
107.459    19.5099    1.65858   
109.017    19.5016    1.68061   
110.597    19.4933    1.70262   
112.2      19.4849    1.72462   
113.827    19.4765    1.7466    
115.477    19.4681    1.76856   
117.151    19.5289    1.77489   
118.849    19.5899    1.78124   
120.571    19.6511    1.78762   
122.319    19.7124    1.79402   
124.092    19.774     1.80044   
125.891    19.7666    1.84991   
127.716    19.7592    1.89935   
129.567    19.7515    1.94877   
131.445    19.7438    1.99816   
133.35     19.7359    2.04752   
135.283    19.7204    2.09965   
137.244    19.7047    2.1517    
139.234    19.6889    2.20369   
141.252    19.6729    2.25561   
143.299    19.6568    2.30746   
145.377    19.6618    2.32765   
147.484    19.6667    2.34785   
149.622    19.6717    2.36806   
151.79     19.6766    2.38829   
153.991    19.6815    2.40852   
156.223    19.6578    2.44928   
158.487    19.634     2.48995   
160.785    19.6102    2.53053   
163.115    19.5863    2.57102   
165.48     19.5623    2.61142   
167.878    19.558     2.65008   
170.312    19.5536    2.68874   
172.78     19.5491    2.7274    
175.285    19.5445    2.76604   
177.826    19.5398    2.80468   
180.403    19.5511    2.84862   
183.018    19.5623    2.89263   
185.671    19.5735    2.9367    
188.362    19.5845    2.98083   
191.093    19.5955    3.02502   
193.863    19.5901    3.07965   
196.673    19.5846    3.13427   
199.524    19.5789    3.18888   
202.416    19.5731    3.24348   
205.35     19.5672    3.29808   
208.326    19.5894    3.33164   
211.346    19.6115    3.36528   
214.41     19.6337    3.39901   
217.518    19.6558    3.43281   
220.671    19.678     3.46669   
223.869    19.7238    3.49095   
227.114    19.7698    3.5153    
230.406    19.8159    3.53974   
233.746    19.8621    3.56429   
237.134    19.9083    3.58893   
240.572    19.844     3.67498   
244.059    19.7793    3.76052   
247.596    19.7144    3.84555   
251.185    19.6493    3.93007   
254.826    19.5839    4.01408   
258.52     19.5999    4.08407   
262.267    19.6157    4.15422   
266.069    19.6313    4.22452   
269.926    19.6467    4.29498   
273.838    19.6619    4.36559   
277.808    19.6549    4.42695   
281.835    19.6477    4.48831   
285.92     19.6404    4.54966   
290.064    19.6328    4.61102   
294.269    19.6251    4.67236   
298.534    19.6257    4.73252   
302.862    19.6261    4.79272   
307.252    19.6263    4.85296   
311.705    19.6264    4.91325   
316.224    19.6263    4.97358   
320.807    19.6259    5.07972   
325.458    19.6249    5.18598   
330.175    19.6234    5.29238   
334.961    19.6214    5.39891   
339.816    19.6188    5.50556   
344.742    19.6263    5.57315   
349.739    19.6336    5.64086   
354.809    19.6407    5.70868   
359.952    19.6477    5.7766    
365.169    19.6544    5.84462   
370.463    19.6545    5.93685   
375.833    19.6542    6.0292    
381.28     19.6535    6.12167   
386.807    19.6524    6.21425   
392.414    19.6509    6.30694   
398.102    19.6373    6.3975    
403.873    19.6233    6.48806   
409.727    19.6089    6.57862   
415.666    19.5941    6.66919   
421.691    19.5789    6.75976   
427.804    19.5812    6.83398   
434.005    19.5833    6.9083    
440.296    19.5852    6.98273   
446.678    19.5868    7.05726   
453.153    19.5882    7.13189   
459.721    19.5679    7.25025   
466.385    19.5469    7.36862   
473.145    19.5252    7.48699   
480.004    19.5028    7.60536   
486.961    19.4797    7.72372   
494.02     19.5033    7.84633   
501.181    19.5264    7.96945   
508.446    19.5489    8.09307   
515.816    19.5708    8.2172    
523.292    19.5922    8.34185   
530.878    19.5768    8.46616   
538.573    19.5607    8.59059   
546.38     19.5438    8.71513   
554.299    19.5263    8.83978   
562.334    19.508     8.96453   
570.485    19.5364    9.06597   
578.755    19.5645    9.16783   
587.144    19.5923    9.27013   
595.654    19.6198    9.37285   
604.289    19.6471    9.47602   
613.048    19.6384    9.64604   
621.934    19.6285    9.81652   
630.949    19.6174    9.98745   
640.095    19.6049    10.1588   
649.373    19.5912    10.3306   
658.786    19.6078    10.491    
668.335    19.6234    10.6523   
678.023    19.6382    10.8142   
687.851    19.652     10.9769   
697.822    19.6649    11.1403   
707.937    19.6477    11.2872   
718.198    19.6295    11.4344   
728.609    19.6105    11.5819   
739.17     19.5905    11.7296   
749.885    19.5696    11.8775   
760.754    19.5686    12.041    
771.782    19.5666    12.2051   
782.969    19.5636    12.3697   
794.318    19.5596    12.5349   
805.832    19.5545    12.7007   
817.513    19.5696    12.8901   
829.363    19.5835    13.0804   
841.384    19.5963    13.2718   
853.58     19.6079    13.4642   
865.953    19.6183    13.6577   
878.505    19.6069    13.8729   
891.239    19.5937    14.0891   
904.158    19.5789    14.3062   
917.264    19.5623    14.5242   
930.56     19.544     14.7431   
944.049    19.5464    14.9729   
957.733    19.5471    15.2041   
971.615    19.5462    15.4366   
985.699    19.5434    15.6704   
999.987    19.539     15.9055   
1014.48    19.5156    16.1703   
1029.19    19.4897    16.4365   
1044.11    19.4613    16.704    
1059.24    19.4304    16.9729   
1074.59    19.397     17.2431   
1090.17    19.4247    17.4747   
1105.97    19.4513    17.7081   
1122       19.4767    17.9432   
1138.27    19.5008    18.1801   
1154.77    19.5237    18.4187   
1171.51    19.5196    18.6822   
1188.49    19.5135    18.9475   
1205.71    19.5055    19.2145   
1223.19    19.4955    19.4833   
1240.92    19.4835    19.7537   
1258.91    19.4849    20.0541   
1277.16    19.484     20.3569   
1295.67    19.4809    20.662    
1314.45    19.4754    20.9695   
1333.5     19.4675    21.2793   
1352.83    19.4675    21.5793   
1372.44    19.4654    21.8817   
1392.34    19.4611    22.1863   
1412.52    19.4547    22.4933   
1432.99    19.446     22.8026   
1453.77    19.4657    23.1339   
1474.84    19.4833    23.4684   
1496.22    19.4989    23.8059   
1517.9     19.5124    24.1466   
1539.91    19.5236    24.4903   
1562.23    19.5257    24.8424   
1584.87    19.5253    25.1976   
1607.85    19.5225    25.556    
1631.15    19.5172    25.9176   
1654.8     19.5092    26.2822   
1678.78    19.4854    26.6943   
1703.12    19.4581    27.1101   
1727.8     19.4271    27.5297   
1752.85    19.3924    27.9531   
1778.26    19.354     28.3803   
1804.03    19.3503    28.7692   
1830.18    19.344     29.1618   
1856.71    19.3352    29.5579   
1883.62    19.3237    29.9576   
1910.93    19.3095    30.361    
1938.63    19.3233    30.814    
1966.73    19.3345    31.272    
1995.24    19.3427    31.735    
2024.16    19.3482    32.203    
2053.5     19.3506    32.6762   
2083.26    19.3301    33.1118   
2113.46    19.3067    33.5515   
2144.1     19.2803    33.9952   
2175.18    19.2508    34.443    
2206.71    19.2182    34.8949   
2238.69    19.1997    35.4238   
2271.14    19.1773    35.9585   
2304.06    19.151     36.4992   
2337.46    19.1208    37.0459   
2371.34    19.0864    37.5986   
2405.72    19.0944    38.1915   
2440.59    19.0988    38.7919   
2475.96    19.0995    39.3999   
2511.85    19.0964    40.0157   
2548.26    19.0896    40.6391   
2585.2     19.07      41.1953   
2622.67    19.0472    41.7575   
2660.69    19.0208    42.3257   
2699.26    18.991     42.9001   
2738.38    18.9576    43.4807   
2778.08    19.0769    44.2111   
2818.35    19.1952    44.953    
2859.2     19.3124    45.7066   
2900.64    19.4285    46.4721   
2942.69    19.5433    47.2495   
2985.34    19.51      47.8901   
3028.62    19.4728    48.5378   
3072.52    19.4317    49.1925   
3117.05    19.3865    49.8545   
3162.24    19.3373    50.5237   
3208.07    19.2205    51.2179   
3254.58    19.0978    51.919    
3301.75    18.9691    52.6273   
3349.61    18.8343    53.3426   
3398.16    18.6932    54.065    
3447.42    18.692     54.8115   
3497.39    18.6876    55.5671   
3548.09    18.6799    56.332    
3599.52    18.6688    57.1064   
3651.69    18.6543    57.8902   
3704.63    18.6839    58.8162   
3758.33    18.7101    59.7559   
3812.8     18.7327    60.7094   
3868.07    18.7516    61.677    
3924.14    18.7668    62.6589   
3981.02    18.6832    63.5563   
4038.73    18.5938    64.4648   
4097.27    18.4987    65.3845   
4156.66    18.3976    66.3154   
4216.91    18.2904    67.2577   
4278.04    18.2538    68.2788   
4340.05    18.2123    69.3141   
4402.96    18.1657    70.3637   
4466.78    18.1139    71.4278   
4531.53    18.0568    72.5065   
4597.21    18.0576    73.5453   
4663.85    18.055     74.5982   
4731.45    18.0488    75.6652   
4800.04    18.0389    76.7466   
4869.61    18.0253    77.8426   
4940.2     17.8689    79.0216   
5011.81    17.7042    80.2163   
5084.46    17.5309    81.4267   
5158.16    17.3489    82.6531   
5232.92    17.1579    83.8956   
5308.78    17.2523    85.1385   
5385.73    17.3457    86.3995   
5463.8     17.4382    87.6788   
5542.99    17.5297    88.9768   
5623.34    17.6201    90.2937   
5704.85    17.4886    91.4665   
5787.55    17.351     92.6532   
5871.44    17.2071    93.8539   
5956.54    17.0568    95.0687   
