# Freq.    Mag.
0          1.85262e-05
8          1.84896e-05
16         1.72121e-05
24         1.54024e-05
32         1.35959e-05
40         1.16455e-05
48         1.00375e-05
56         8.9943e-06
64         8.155e-06 
72         7.63131e-06
80         7.06193e-06
88         6.25971e-06
96         5.41125e-06
104        5.02958e-06
112        4.9618e-06
120        4.8028e-06
128        4.49642e-06
136        4.39391e-06
144        4.26394e-06
152        4.14482e-06
160        4.01117e-06
168        3.82592e-06
176        3.64965e-06
184        3.47706e-06
192        3.25994e-06
200        2.94568e-06
208        2.67494e-06
216        2.56306e-06
224        2.42879e-06
232        2.36197e-06
240        2.43712e-06
248        2.57614e-06
256        2.58823e-06
264        2.5199e-06
272        2.41352e-06
280        2.27446e-06
288        2.17089e-06
296        2.09658e-06
304        2.00755e-06
312        1.95422e-06
320        1.90214e-06
328        1.89638e-06
336        1.87093e-06
344        1.81199e-06
352        1.69655e-06
360        1.58308e-06
368        1.5891e-06
376        1.61165e-06
384        1.66516e-06
392        1.68687e-06
400        1.60897e-06
408        1.63294e-06
416        1.63983e-06
424        1.55225e-06
432        1.47151e-06
440        1.44193e-06
448        1.45268e-06
456        1.48803e-06
464        1.50316e-06
472        1.51619e-06
480        1.49021e-06
488        1.42027e-06
496        1.34401e-06
504        1.30101e-06
512        1.29431e-06
520        1.28243e-06
528        1.18189e-06
536        1.15001e-06
544        1.23889e-06
552        1.32376e-06
560        1.2757e-06
568        1.16564e-06
576        1.04038e-06
584        1.02271e-06
592        1.11653e-06
600        1.16645e-06
608        1.16977e-06
616        1.11963e-06
624        1.07046e-06
632        1.09909e-06
640        1.12118e-06
648        1.10445e-06
656        1.07824e-06
664        1.09481e-06
672        1.16395e-06
680        1.19458e-06
688        1.20096e-06
696        1.15004e-06
704        1.05552e-06
712        9.95831e-07
720        1.01523e-06
728        1.00285e-06
736        9.31527e-07
744        9.12987e-07
752        9.81483e-07
760        1.06224e-06
768        1.0789e-06
776        1.04274e-06
784        1.03313e-06
792        1.00346e-06
800        9.66245e-07
808        9.18607e-07
816        8.91695e-07
824        9.14381e-07
832        9.2911e-07
840        9.34761e-07
848        9.61883e-07
856        9.41839e-07
864        8.63581e-07
872        8.86295e-07
880        8.99482e-07
888        8.7975e-07
896        8.61184e-07
904        8.49663e-07
912        8.79523e-07
920        9.1057e-07
928        9.22088e-07
936        8.89646e-07
944        8.70977e-07
952        8.71286e-07
960        9.12095e-07
968        9.15203e-07
976        9.04541e-07
984        1.31703e-06
992        1.7803e-06
1000       1.86673e-06
1008       1.82483e-06
1016       1.37118e-06
1024       9.16026e-07
1032       8.67144e-07
1040       8.91502e-07
1048       9.16162e-07
1056       9.1252e-07
1064       8.65592e-07
1072       8.16689e-07
1080       8.1478e-07
1088       8.59466e-07
1096       8.96202e-07
1104       8.93285e-07
1112       8.54881e-07
1120       7.8251e-07
1128       7.52406e-07
1136       7.85174e-07
1144       8.09137e-07
1152       8.22002e-07
1160       8.26606e-07
1168       8.38566e-07
1176       8.54587e-07
1184       8.32802e-07
1192       8.16632e-07
1200       8.18548e-07
1208       8.26846e-07
1216       8.30015e-07
1224       8.12213e-07
1232       8.29639e-07
1240       8.45104e-07
1248       8.10109e-07
1256       7.45489e-07
1264       7.4726e-07
1272       7.90492e-07
1280       7.80314e-07
1288       7.60589e-07
1296       7.53016e-07
1304       7.69854e-07
1312       8.07068e-07
1320       8.0876e-07
1328       7.70969e-07
1336       7.73773e-07
1344       8.1926e-07
1352       8.41279e-07
1360       8.03381e-07
1368       7.66763e-07
1376       7.98143e-07
1384       8.24678e-07
1392       8.393e-07 
1400       8.44011e-07
1408       8.31879e-07
1416       8.02114e-07
1424       7.80386e-07
1432       7.85952e-07
1440       7.69702e-07
1448       7.48978e-07
1456       7.8483e-07
1464       8.03979e-07
1472       7.85251e-07
1480       7.68594e-07
1488       7.4752e-07
1496       7.30962e-07
1504       6.96262e-07
1512       6.48893e-07
1520       6.40217e-07
1528       6.65542e-07
1536       6.78456e-07
1544       7.25834e-07
1552       7.55661e-07
1560       7.50715e-07
1568       7.62161e-07
1576       7.65927e-07
1584       7.51326e-07
1592       7.27351e-07
1600       7.18352e-07
1608       7.48474e-07
1616       7.91215e-07
1624       7.69848e-07
1632       7.19492e-07
1640       6.92808e-07
1648       6.85056e-07
1656       7.06215e-07
1664       7.03055e-07
1672       6.80834e-07
1680       6.84824e-07
1688       7.05755e-07
1696       7.56455e-07
1704       7.61613e-07
1712       7.37395e-07
1720       7.0443e-07
1728       7.05597e-07
1736       7.38228e-07
1744       7.5423e-07
1752       7.66688e-07
1760       8.07842e-07
1768       8.18897e-07
1776       7.76353e-07
1784       7.55411e-07
1792       7.45635e-07
1800       7.39781e-07
1808       7.0706e-07
1816       6.95981e-07
1824       7.12047e-07
1832       6.874e-07 
1840       6.76568e-07
1848       6.97991e-07
1856       7.50569e-07
1864       7.91067e-07
1872       7.85279e-07
1880       7.49471e-07
1888       7.01608e-07
1896       6.78322e-07
1904       7.23926e-07
1912       7.86569e-07
1920       8.24049e-07
1928       7.89004e-07
1936       7.28283e-07
1944       7.081e-07 
1952       7.14235e-07
1960       7.14886e-07
1968       6.6056e-07
1976       6.26115e-07
1984       6.28451e-07
1992       6.28886e-07
2000       6.371e-07 
2008       6.47701e-07
2016       6.73196e-07
2024       6.87386e-07
2032       7.10526e-07
2040       7.25704e-07
2048       7.21157e-07
2056       7.35089e-07
2064       7.47833e-07
2072       7.37668e-07
2080       6.90826e-07
2088       6.38802e-07
2096       6.20385e-07
2104       6.42961e-07
2112       6.69348e-07
2120       7.04379e-07
2128       7.10743e-07
2136       6.88762e-07
2144       6.76622e-07
2152       6.3859e-07
2160       6.14839e-07
2168       6.48762e-07
2176       6.68331e-07
2184       6.60776e-07
2192       6.45268e-07
2200       6.59925e-07
2208       6.96713e-07
2216       6.85621e-07
2224       6.90103e-07
2232       6.89612e-07
2240       6.96839e-07
2248       7.06612e-07
2256       7.07437e-07
2264       6.88665e-07
2272       6.84691e-07
2280       6.95245e-07
2288       7.2344e-07
2296       7.52152e-07
2304       7.63577e-07
2312       7.42177e-07
2320       7.01635e-07
2328       6.54879e-07
2336       6.17534e-07
2344       6.40218e-07
2352       6.55417e-07
2360       6.65067e-07
2368       6.97515e-07
2376       7.04355e-07
2384       6.91385e-07
2392       6.50131e-07
2400       6.26069e-07
2408       6.29272e-07
2416       6.34653e-07
2424       6.10162e-07
2432       6.1185e-07
2440       6.61519e-07
2448       7.06581e-07
2456       7.50944e-07
2464       7.40811e-07
2472       6.78681e-07
2480       6.63613e-07
2488       6.58229e-07
2496       6.44525e-07
2504       6.37278e-07
2512       6.66762e-07
2520       6.86119e-07
2528       6.74042e-07
2536       6.63582e-07
2544       6.58536e-07
2552       6.62583e-07
2560       7.02714e-07
2568       7.21061e-07
2576       7.01176e-07
2584       6.84491e-07
2592       6.83289e-07
2600       7.02107e-07
2608       7.14961e-07
2616       7.26646e-07
2624       7.189e-07 
2632       6.84452e-07
2640       6.27925e-07
2648       6.12447e-07
2656       6.21492e-07
2664       6.20643e-07
2672       6.40737e-07
2680       6.63799e-07
2688       6.74876e-07
2696       6.75418e-07
2704       6.61364e-07
2712       6.50045e-07
2720       6.68198e-07
2728       6.70293e-07
2736       6.45443e-07
2744       6.29831e-07
2752       6.13585e-07
2760       6.27098e-07
2768       6.36901e-07
2776       6.22966e-07
2784       5.99436e-07
2792       5.82948e-07
2800       6.09284e-07
2808       6.48415e-07
2816       6.63829e-07
2824       6.86265e-07
2832       7.31306e-07
2840       7.47516e-07
2848       7.26785e-07
2856       7.06182e-07
2864       6.98898e-07
2872       7.17677e-07
2880       7.18851e-07
2888       6.82409e-07
2896       6.36717e-07
2904       6.52795e-07
2912       7.11725e-07
2920       7.48708e-07
2928       7.23927e-07
2936       6.66516e-07
2944       6.25655e-07
2952       6.19161e-07
2960       6.33731e-07
2968       6.41655e-07
2976       6.43588e-07
2984       6.80464e-07
2992       7.37492e-07
3000       7.47026e-07
3008       7.71673e-07
3016       7.04497e-07
3024       6.2529e-07
3032       6.2911e-07
3040       6.67017e-07
3048       7.16866e-07
3056       7.5836e-07
3064       7.57744e-07
3072       7.01207e-07
3080       6.36242e-07
3088       6.33989e-07
3096       6.67885e-07
3104       6.68137e-07
3112       6.64563e-07
3120       6.83797e-07
3128       7.23148e-07
3136       7.4202e-07
3144       7.1533e-07
3152       6.73738e-07
3160       6.30254e-07
3168       6.21345e-07
3176       6.27403e-07
3184       6.20601e-07
3192       6.19849e-07
3200       6.32455e-07
3208       6.19805e-07
3216       6.14625e-07
3224       6.13483e-07
3232       6.03754e-07
3240       6.20201e-07
3248       6.31998e-07
3256       6.2114e-07
3264       6.10378e-07
3272       6.11767e-07
3280       6.31225e-07
3288       6.51209e-07
3296       6.52686e-07
3304       6.54866e-07
3312       6.42653e-07
3320       6.20366e-07
3328       6.03064e-07
3336       6.0963e-07
3344       6.40362e-07
3352       6.61392e-07
3360       6.98111e-07
3368       7.38978e-07
3376       7.20618e-07
3384       6.73636e-07
3392       6.14703e-07
3400       5.89266e-07
3408       5.80444e-07
3416       5.84866e-07
3424       6.316e-07 
3432       6.68987e-07
3440       6.61468e-07
3448       6.34099e-07
3456       6.55992e-07
3464       7.06292e-07
3472       7.12168e-07
3480       6.72507e-07
3488       6.39881e-07
3496       6.34018e-07
3504       6.47808e-07
3512       6.38703e-07
3520       6.24252e-07
3528       6.35538e-07
3536       6.46485e-07
3544       6.27272e-07
3552       5.98929e-07
3560       6.17858e-07
3568       6.66022e-07
3576       6.52827e-07
3584       6.10334e-07
3592       6.26384e-07
3600       6.51415e-07
3608       6.61913e-07
3616       6.56845e-07
3624       6.70576e-07
3632       6.80697e-07
3640       6.73808e-07
3648       6.60856e-07
3656       6.45838e-07
3664       6.47463e-07
3672       6.56411e-07
3680       6.83898e-07
3688       7.09803e-07
3696       7.18253e-07
3704       7.37125e-07
3712       7.60612e-07
3720       7.53652e-07
3728       6.97812e-07
3736       6.22779e-07
3744       5.75307e-07
3752       5.69293e-07
3760       5.89083e-07
3768       6.20909e-07
3776       6.46489e-07
3784       6.32472e-07
3792       6.03106e-07
3800       6.10941e-07
3808       6.42223e-07
3816       6.87012e-07
3824       7.10759e-07
3832       6.98909e-07
3840       6.78705e-07
3848       6.9445e-07
3856       6.98341e-07
3864       7.24415e-07
3872       7.81431e-07
3880       7.70978e-07
3888       7.28583e-07
3896       6.91018e-07
3904       6.3781e-07
3912       5.93111e-07
3920       5.89135e-07
3928       6.18877e-07
3936       6.58028e-07
3944       6.73628e-07
3952       6.49945e-07
3960       6.10193e-07
3968       5.68969e-07
3976       5.64262e-07
3984       5.85534e-07
3992       6.37798e-07
4000       6.68797e-07
4008       6.61712e-07
4016       6.32619e-07
4024       6.23641e-07
4032       6.29512e-07
4040       6.34397e-07
4048       6.49531e-07
4056       6.51304e-07
4064       6.87988e-07
4072       7.27392e-07
4080       7.06513e-07
4088       6.82936e-07
4096       6.49623e-07
4104       6.19912e-07
4112       6.01394e-07
4120       5.95739e-07
4128       6.11138e-07
4136       6.48633e-07
4144       6.72942e-07
4152       6.87491e-07
4160       6.94337e-07
4168       7.03475e-07
4176       7.09047e-07
4184       6.99902e-07
4192       6.91432e-07
4200       6.78827e-07
4208       6.57816e-07
4216       6.23368e-07
4224       6.25007e-07
4232       6.59071e-07
4240       6.91256e-07
4248       6.9971e-07
4256       6.7982e-07
4264       6.78322e-07
4272       6.61251e-07
4280       6.24548e-07
4288       6.13707e-07
4296       6.30976e-07
4304       6.47425e-07
4312       6.2968e-07
4320       5.91173e-07
4328       5.87603e-07
4336       6.37054e-07
4344       6.91979e-07
4352       7.30307e-07
4360       7.31089e-07
4368       6.87778e-07
4376       6.01236e-07
4384       5.52224e-07
4392       5.74242e-07
4400       6.12491e-07
4408       6.32484e-07
4416       6.51266e-07
4424       6.69578e-07
4432       6.80347e-07
4440       6.9877e-07
4448       7.17278e-07
4456       7.17973e-07
4464       6.73002e-07
4472       6.26945e-07
4480       6.0889e-07
4488       6.28207e-07
4496       6.55246e-07
4504       6.66937e-07
4512       6.51678e-07
4520       6.39435e-07
4528       6.5936e-07
4536       6.85253e-07
4544       7.27261e-07
4552       7.3051e-07
4560       7.08219e-07
4568       6.61275e-07
4576       6.32429e-07
4584       6.29308e-07
4592       6.25717e-07
4600       6.54003e-07
4608       6.98256e-07
4616       6.90123e-07
4624       6.43451e-07
4632       6.05998e-07
4640       6.10957e-07
4648       6.30898e-07
4656       6.37811e-07
4664       6.43359e-07
4672       6.51332e-07
4680       6.61443e-07
4688       6.7289e-07
4696       6.75001e-07
4704       6.881e-07 
4712       6.92226e-07
4720       7.04921e-07
4728       7.21871e-07
4736       7.03018e-07
4744       6.64737e-07
4752       6.33873e-07
4760       6.16973e-07
4768       6.21636e-07
4776       6.58682e-07
4784       7.03089e-07
4792       7.30108e-07
4800       7.25964e-07
4808       6.96012e-07
4816       6.67357e-07
4824       6.43687e-07
4832       6.49989e-07
4840       6.46673e-07
4848       6.23159e-07
4856       6.12113e-07
4864       6.23609e-07
4872       6.49423e-07
4880       6.72611e-07
4888       6.79102e-07
4896       6.74647e-07
4904       6.51841e-07
4912       6.43049e-07
4920       6.45134e-07
4928       6.57977e-07
4936       6.81325e-07
4944       7.02338e-07
4952       7.21095e-07
4960       7.34285e-07
4968       6.9247e-07
4976       6.25091e-07
4984       6.11481e-07
4992       6.21567e-07
5000       6.42379e-07
5008       6.71405e-07
5016       6.52342e-07
5024       6.04334e-07
5032       5.94497e-07
5040       6.1029e-07
5048       6.1121e-07
5056       6.34787e-07
5064       6.75714e-07
5072       7.17973e-07
5080       7.25218e-07
5088       7.14406e-07
5096       6.7538e-07
5104       6.22408e-07
5112       5.9139e-07
5120       5.6423e-07
5128       5.68919e-07
5136       6.20204e-07
5144       6.66514e-07
5152       6.67661e-07
5160       6.60127e-07
5168       6.3607e-07
5176       6.0624e-07
5184       5.93509e-07
5192       5.77609e-07
5200       5.56137e-07
5208       5.77407e-07
5216       6.11246e-07
5224       6.50219e-07
5232       7.00619e-07
5240       7.09333e-07
5248       7.00939e-07
5256       6.97094e-07
5264       6.8363e-07
5272       6.49407e-07
5280       6.31285e-07
5288       6.42525e-07
5296       6.58155e-07
5304       6.4524e-07
5312       6.30373e-07
5320       6.20404e-07
5328       5.86389e-07
5336       5.33662e-07
5344       5.3934e-07
5352       5.99664e-07
5360       6.332e-07 
5368       6.20327e-07
5376       6.17385e-07
5384       6.37309e-07
5392       6.37474e-07
5400       6.04094e-07
5408       5.96516e-07
5416       6.47571e-07
5424       7.3218e-07
5432       7.80032e-07
5440       7.97287e-07
5448       7.70327e-07
5456       7.34268e-07
5464       7.12019e-07
5472       6.88589e-07
5480       6.78342e-07
5488       6.79092e-07
5496       6.6971e-07
5504       6.4048e-07
5512       6.23459e-07
5520       6.19448e-07
5528       6.40269e-07
5536       6.69969e-07
5544       6.95658e-07
5552       6.94329e-07
5560       6.84409e-07
5568       6.76443e-07
5576       6.81015e-07
5584       7.22029e-07
5592       7.45329e-07
5600       7.56676e-07
5608       7.24058e-07
5616       6.71223e-07
5624       6.40517e-07
5632       6.4104e-07
5640       6.77245e-07
5648       7.17147e-07
5656       7.65754e-07
5664       7.7229e-07
5672       7.47105e-07
5680       7.14523e-07
5688       6.80638e-07
5696       6.58878e-07
5704       6.64892e-07
5712       6.79655e-07
5720       6.90642e-07
5728       6.75531e-07
5736       6.69104e-07
5744       6.97397e-07
5752       7.01342e-07
5760       6.92067e-07
5768       6.92916e-07
5776       6.97701e-07
5784       7.24802e-07
5792       7.42456e-07
5800       7.4415e-07
5808       7.38934e-07
5816       7.16176e-07
5824       6.67066e-07
5832       6.69594e-07
5840       7.3181e-07
5848       7.63947e-07
5856       7.55002e-07
5864       7.33291e-07
5872       7.02554e-07
5880       6.6246e-07
5888       6.62856e-07
5896       6.70865e-07
5904       6.66465e-07
5912       6.63539e-07
5920       6.78131e-07
5928       7.0427e-07
5936       7.12902e-07
5944       7.03546e-07
5952       6.91681e-07
5960       7.05875e-07
5968       7.50285e-07
5976       7.99289e-07
5984       8.14917e-07
5992       8.09292e-07
6000       8.23496e-07
6008       8.43889e-07
6016       8.33123e-07
6024       8.11063e-07
6032       7.95001e-07
6040       7.89964e-07
6048       8.03188e-07
6056       8.03279e-07
6064       7.72008e-07
6072       7.50082e-07
6080       7.43558e-07
6088       7.43879e-07
6096       7.50407e-07
6104       7.39795e-07
6112       7.41216e-07
6120       7.59948e-07
6128       7.61148e-07
6136       7.56522e-07
6144       7.37642e-07
6152       7.25856e-07
6160       7.54462e-07
6168       7.87757e-07
6176       7.89035e-07
6184       7.66064e-07
6192       7.42588e-07
6200       7.2716e-07
6208       7.64133e-07
6216       7.83775e-07
6224       7.81347e-07
6232       7.59104e-07
6240       7.37726e-07
6248       7.40746e-07
6256       7.15315e-07
6264       6.9063e-07
6272       6.89725e-07
6280       7.18302e-07
6288       7.90384e-07
6296       8.51011e-07
6304       8.61308e-07
6312       8.45578e-07
6320       8.00308e-07
6328       7.62003e-07
6336       7.40739e-07
6344       7.13981e-07
6352       6.9337e-07
6360       6.91685e-07
6368       7.05012e-07
6376       7.06881e-07
6384       6.9614e-07
6392       7.04008e-07
6400       7.28633e-07
6408       7.62392e-07
6416       7.98404e-07
6424       8.23333e-07
6432       7.89277e-07
6440       7.37394e-07
6448       7.22414e-07
6456       7.37167e-07
6464       7.82679e-07
6472       8.15401e-07
6480       8.17866e-07
6488       8.01471e-07
6496       7.74185e-07
6504       7.71426e-07
6512       7.60596e-07
6520       7.35428e-07
6528       7.1606e-07
6536       7.08499e-07
6544       6.85304e-07
6552       6.3665e-07
6560       6.23179e-07
6568       6.83869e-07
6576       7.62087e-07
6584       8.05665e-07
6592       7.96422e-07
6600       7.62785e-07
6608       7.30834e-07
6616       6.93481e-07
6624       6.67936e-07
6632       6.77317e-07
6640       7.30886e-07
6648       7.80209e-07
6656       7.95941e-07
6664       7.86164e-07
6672       7.48692e-07
6680       7.50367e-07
6688       7.77267e-07
6696       7.67562e-07
6704       7.45558e-07
6712       7.34055e-07
6720       7.29083e-07
6728       7.38019e-07
6736       7.47991e-07
6744       7.45827e-07
6752       7.28516e-07
6760       7.3139e-07
6768       7.67111e-07
6776       7.8383e-07
6784       7.71471e-07
6792       7.76979e-07
6800       7.85513e-07
6808       7.60454e-07
6816       7.32761e-07
6824       7.2281e-07
6832       7.51579e-07
6840       7.59234e-07
6848       7.44043e-07
6856       7.17785e-07
6864       6.87439e-07
6872       6.95297e-07
6880       7.28914e-07
6888       7.70516e-07
6896       7.70605e-07
6904       7.43768e-07
6912       7.37909e-07
6920       7.4685e-07
6928       7.51708e-07
6936       7.58913e-07
6944       7.80581e-07
6952       7.83227e-07
6960       7.54676e-07
6968       7.02326e-07
