# Freq.    Re    Im
0.999987   -4.00996   -0.0678736
1.01448    -4.00902   -0.0683518
1.02919    -4.00808   -0.0688297
1.04411    -4.00714   -0.0693075
1.05924    -4.00619   -0.0697849
1.07459    -4.00526   -0.0702626
1.09017    -4.00476   -0.0717672
1.10597    -4.00426   -0.0732714
1.122      -4.00377   -0.0747752
1.13827    -4.00327   -0.0762788
1.15477    -4.00278   -0.0777817
1.17151    -4.00158   -0.0800177
1.18849    -4.00038   -0.0822524
1.20571    -3.99917   -0.0844857
1.22319    -3.99797   -0.0867178
1.24092    -3.99677   -0.0889495
1.25891    -3.99817   -0.0917819
1.27716    -3.99957   -0.0946163
1.29567    -4.00096   -0.0974528
1.31445    -4.00236   -0.100291 
1.3335     -4.00375   -0.103131 
1.35283    -4.00237   -0.104076 
1.37244    -4.00099   -0.105021 
1.39234    -3.99962   -0.105964 
1.41252    -3.99824   -0.106907 
1.43299    -3.99687   -0.10785  
1.45377    -3.99769   -0.110669 
1.47484    -3.99851   -0.11349  
1.49622    -3.99932   -0.116311 
1.5179     -4.00014   -0.119134 
1.53991    -4.00096   -0.121959 
1.56223    -4.00042   -0.124932 
1.58487    -3.99987   -0.127904 
1.60785    -3.99933   -0.130875 
1.63115    -3.99878   -0.133846 
1.6548     -3.99824   -0.136814 
1.67878    -3.99808   -0.139747 
1.70312    -3.99791   -0.142679 
1.7278     -3.99774   -0.145611 
1.75285    -3.99757   -0.148543 
1.77826    -3.9974    -0.151475 
1.80403    -3.9968    -0.154128 
1.83018    -3.99619   -0.156779 
1.85671    -3.99559   -0.15943  
1.88362    -3.99498   -0.16208  
1.91093    -3.99437   -0.164729 
1.93863    -3.99436   -0.168366 
1.96673    -3.99434   -0.172004 
1.99524    -3.99432   -0.175641 
2.02416    -3.9943    -0.179279 
2.0535     -3.99428   -0.182917 
2.08326    -3.99618   -0.184932 
2.11346    -3.99807   -0.186948 
2.1441     -3.99997   -0.188967 
2.17518    -4.00186   -0.190987 
2.20671    -4.00376   -0.193009 
2.23869    -4.00251   -0.198486 
2.27114    -4.00126   -0.203959 
2.30406    -3.99999   -0.209429 
2.33746    -3.99872   -0.214896 
2.37134    -3.99744   -0.22036  
2.40572    -3.99698   -0.223149 
2.44059    -3.99652   -0.225937 
2.47596    -3.99606   -0.228725 
2.51185    -3.99559   -0.231512 
2.54826    -3.99512   -0.234299 
2.5852     -3.99591   -0.237366 
2.62267    -3.99669   -0.240435 
2.66069    -3.99748   -0.243505 
2.69926    -3.99826   -0.246576 
2.73838    -3.99903   -0.249647 
2.77808    -3.99955   -0.253756 
2.81835    -4.00007   -0.257867 
2.8592     -4.00058   -0.261979 
2.90064    -4.00109   -0.266092 
2.94269    -4.00159   -0.270207 
2.98534    -4.00033   -0.275877 
3.02862    -3.99906   -0.281544 
3.07252    -3.99778   -0.287208 
3.11705    -3.9965    -0.292869 
3.16224    -3.99521   -0.298527 
3.20807    -3.99609   -0.307395 
3.25458    -3.99694   -0.316268 
3.30175    -3.99778   -0.325147 
3.34961    -3.9986    -0.334031 
3.39816    -3.9994    -0.342919 
3.44742    -3.99667   -0.345604 
3.49739    -3.99393   -0.348284 
3.54809    -3.99119   -0.350961 
3.59952    -3.98846   -0.353634 
3.65169    -3.98572   -0.356303 
3.70463    -3.98534   -0.357558 
3.75833    -3.98495   -0.358812 
3.8128     -3.98456   -0.360066 
3.86807    -3.98416   -0.36132  
3.92414    -3.98378   -0.362575 
3.98102    -3.98478   -0.371397 
4.03873    -3.98577   -0.380225 
4.09727    -3.98674   -0.389058 
4.15666    -3.98768   -0.397899 
4.21691    -3.98862   -0.406745 
4.27804    -3.98745   -0.411292 
4.34005    -3.98627   -0.415836 
4.40296    -3.98509   -0.420378 
4.46678    -3.98391   -0.424918 
4.53153    -3.98272   -0.429456 
4.59721    -3.98137   -0.437907 
4.66385    -3.98      -0.446355 
4.73145    -3.97862   -0.454798 
4.80004    -3.97722   -0.463238 
4.86961    -3.9758    -0.471675 
4.9402     -3.9802    -0.479244 
5.01181    -3.98459   -0.48683  
5.08446    -3.98897   -0.494435 
5.15816    -3.99335   -0.502057 
5.23292    -3.99772   -0.509696 
5.30878    -3.99566   -0.515883 
5.38573    -3.99358   -0.522065 
5.4638     -3.99149   -0.528242 
5.54299    -3.9894    -0.534414 
5.62334    -3.98729   -0.540581 
5.70485    -3.98823   -0.550131 
5.78755    -3.98915   -0.559689 
5.87144    -3.99005   -0.569253 
5.95654    -3.99092   -0.578826 
6.04289    -3.99178   -0.588405 
6.13048    -3.99272   -0.597461 
6.21934    -3.99365   -0.606524 
6.30949    -3.99455   -0.615595 
6.40095    -3.99544   -0.624672 
6.49373    -3.99631   -0.633755 
6.58786    -3.99109   -0.633173 
6.68335    -3.98588   -0.632591 
6.78023    -3.98067   -0.63201  
6.87851    -3.97548   -0.631429 
6.97822    -3.97029   -0.630852 
7.07937    -3.97525   -0.65044  
7.18198    -3.98012   -0.670089 
7.28609    -3.98491   -0.689801 
7.3917     -3.98962   -0.709573 
7.49885    -3.99425   -0.729406 
7.60754    -3.9945    -0.739015 
7.71782    -3.99473   -0.748629 
7.82969    -3.99494   -0.758248 
7.94318    -3.99512   -0.767873 
8.05832    -3.99528   -0.777501 
8.17513    -3.99227   -0.790157 
8.29363    -3.98921   -0.802801 
8.41384    -3.98612   -0.815433 
8.5358     -3.98298   -0.828055 
8.65953    -3.97981   -0.840664 
8.78505    -3.9805    -0.853413 
8.91239    -3.98116   -0.866175 
9.04158    -3.98177   -0.878949 
9.17264    -3.98235   -0.891736 
9.3056     -3.98289   -0.904535 
9.44049    -3.98174   -0.915945 
9.57733    -3.98056   -0.927356 
9.71615    -3.97935   -0.938768 
9.85699    -3.9781    -0.95018  
9.99987    -3.97683   -0.961592 
10.1448    -3.98063   -0.972858 
10.2919    -3.98441   -0.984152 
10.4411    -3.98816   -0.995472 
10.5924    -3.9919    -1.00682  
10.7459    -3.99561   -1.01819  
10.9017    -3.99225   -1.03872  
11.0597    -3.98879   -1.05923  
11.22      -3.98523   -1.07974  
11.3827    -3.98156   -1.10024  
11.5477    -3.97778   -1.12073  
11.7151    -3.98016   -1.13433  
11.8849    -3.98251   -1.14796  
12.0571    -3.98482   -1.16161  
12.2319    -3.98709   -1.17529  
12.4092    -3.98932   -1.189    
12.5891    -3.98206   -1.20284  
12.7716    -3.97476   -1.21665  
12.9567    -3.96741   -1.23041  
13.1445    -3.96001   -1.24415  
13.335     -3.95257   -1.25784  
13.5283    -3.95511   -1.28265  
13.7244    -3.95752   -1.30754  
13.9234    -3.9598    -1.3325   
14.1252    -3.96195   -1.35753  
14.3299    -3.96397   -1.38263  
14.5377    -3.96156   -1.40021  
14.7484    -3.95908   -1.41779  
14.9622    -3.95653   -1.43538  
15.179     -3.95389   -1.45298  
15.3991    -3.95119   -1.47057  
15.6223    -3.95028   -1.49406  
15.8487    -3.94924   -1.51758  
16.0785    -3.94807   -1.54114  
16.3115    -3.94678   -1.56473  
16.548     -3.94536   -1.58836  
16.7878    -3.94238   -1.61007  
17.0312    -3.93929   -1.63179  
17.278     -3.93608   -1.65352  
17.5285    -3.93276   -1.67526  
17.7826    -3.92933   -1.69701  
18.0403    -3.92809   -1.72371  
18.3018    -3.92669   -1.75046  
18.5671    -3.92514   -1.77726  
18.8362    -3.92342   -1.80411  
19.1093    -3.92154   -1.83101  
19.3863    -3.91763   -1.85538  
19.6673    -3.91359   -1.87976  
19.9524    -3.90941   -1.90416  
20.2416    -3.90508   -1.92858  
20.535     -3.90062   -1.95301  
20.8326    -3.89548   -1.97917  
21.1346    -3.89019   -2.00534  
21.441     -3.88472   -2.03152  
21.7518    -3.8791    -2.05772  
22.0671    -3.87331   -2.08392  
22.3869    -3.87046   -2.11472  
22.7114    -3.8674    -2.14558  
23.0406    -3.86413   -2.17651  
23.3746    -3.86065   -2.20749  
23.7134    -3.85697   -2.23855  
24.0572    -3.84716   -2.27177  
24.4059    -3.83708   -2.30498  
24.7596    -3.82674   -2.33817  
25.1185    -3.81612   -2.37135  
25.4826    -3.80524   -2.4045   
25.852     -3.80605   -2.43539  
26.2267    -3.80669   -2.4664   
26.6069    -3.80715   -2.49753  
26.9926    -3.80744   -2.52878  
27.3838    -3.80754   -2.56015  
27.7808    -3.80119   -2.59891  
28.1835    -3.79452   -2.63776  
28.592     -3.78752   -2.67669  
29.0064    -3.78019   -2.71571  
29.4269    -3.77253   -2.75481  
29.8534    -3.76104   -2.79062  
30.2862    -3.74925   -2.82642  
30.7252    -3.73715   -2.86223  
31.1705    -3.72475   -2.89803  
31.6224    -3.71204   -2.93383  
32.0807    -3.69907   -2.97028  
32.5458    -3.6858    -3.00673  
33.0175    -3.6722    -3.04318  
33.4961    -3.65829   -3.07961  
33.9816    -3.64405   -3.11603  
34.4742    -3.63956   -3.1623   
34.9739    -3.63467   -3.2088   
35.4809    -3.62939   -3.25551  
35.9952    -3.62371   -3.30244  
36.5169    -3.61762   -3.34959  
37.0463    -3.59764   -3.40076  
37.5833    -3.57705   -3.45192  
38.128     -3.55585   -3.50308  
38.6807    -3.53402   -3.55423  
39.2414    -3.51158   -3.60536  
39.8102    -3.50012   -3.649    
40.3873    -3.48827   -3.69275  
40.9727    -3.47602   -3.73661  
41.5666    -3.46339   -3.78058  
42.1691    -3.45035   -3.82465  
42.7804    -3.43189   -3.88085  
43.4005    -3.41276   -3.93719  
44.0296    -3.39296   -3.99366  
44.6678    -3.37249   -4.05025  
45.3153    -3.35133   -4.10696  
45.9721    -3.33393   -4.16262  
46.6385    -3.31592   -4.21845  
47.3145    -3.29728   -4.27446  
48.0004    -3.27802   -4.33064  
48.6961    -3.25812   -4.38698  
49.402     -3.22433   -4.44598  
50.1181    -3.18969   -4.50489  
50.8446    -3.15421   -4.56369  
51.5816    -3.11789   -4.62238  
52.3292    -3.08071   -4.68095  
53.0878    -3.0548    -4.74225  
53.8573    -3.02811   -4.8037   
54.638     -3.00064   -4.86529  
55.4299    -2.97238   -4.92702  
56.2334    -2.94332   -4.98887  
57.0485    -2.91298   -5.05015  
57.8755    -2.88183   -5.11153  
58.7144    -2.84988   -5.17299  
59.5654    -2.81711   -5.23453  
60.4289    -2.78352   -5.29614  
61.3048    -2.75561   -5.36371  
62.1934    -2.72684   -5.43155  
63.0949    -2.69722   -5.49964  
64.0095    -2.66672   -5.568    
64.9373    -2.63534   -5.63659  
65.8786    -2.58875   -5.70748  
66.8335    -2.54101   -5.77834  
67.8023    -2.4921    -5.84914  
68.7851    -2.44203   -5.91988  
69.7822    -2.39077   -5.99055  
70.7937    -2.34213   -6.06205  
71.8198    -2.29234   -6.13354  
72.8609    -2.24138   -6.20501  
73.917     -2.18924   -6.27646  
74.9885    -2.13592   -6.34786  
76.0754    -2.08537   -6.42578  
77.1782    -2.03354   -6.50382  
78.2969    -1.98042   -6.58198  
79.4318    -1.92599   -6.66023  
80.5832    -1.87025   -6.73857  
81.7513    -1.80955   -6.81829  
82.9363    -1.74743   -6.89801  
84.1384    -1.68385   -6.97771  
85.358     -1.61882   -7.05738  
86.5953    -1.55231   -7.13699  
87.8505    -1.48262   -7.21756  
89.1239    -1.41138   -7.29802  
90.4158    -1.33857   -7.37835  
91.7264    -1.26419   -7.45854  
93.056     -1.18823   -7.53856  
94.4049    -1.10042   -7.62293  
95.7733    -1.0107    -7.70692  
97.1615    -0.919069  -7.7905   
98.5699    -0.825506  -7.87364  
99.9987    -0.729999  -7.95632  
101.448    -0.657371  -8.03     
102.919    -0.583407  -8.10357  
104.411    -0.508098  -8.17704  
105.924    -0.431432  -8.25037  
107.459    -0.353402  -8.32355  
109.017    -0.259131  -8.39189  
110.597    -0.163335  -8.45965  
112.2      -0.0660112 -8.52683  
113.827    0.0328466  -8.59339  
115.477    0.133243   -8.65931  
117.151    0.232297   -8.75112  
118.849    0.333453   -8.84281  
120.571    0.436732   -8.93434  
122.319    0.542157   -9.02569  
124.092    0.649747   -9.11685  
125.891    0.781729   -9.17776  
127.716    0.915573   -9.23731  
129.567    1.05127    -9.29545  
131.445    1.18883    -9.35215  
133.35     1.32822    -9.40736  
135.283    1.45733    -9.48933  
137.244    1.5888     -9.57057  
139.234    1.72263    -9.65106  
141.252    1.85884    -9.73074  
143.299    1.99745    -9.80959  
145.377    2.13569    -9.85862  
147.484    2.27558    -9.90628  
149.622    2.41713    -9.95255  
151.79     2.56033    -9.99739  
153.991    2.70517    -10.0408  
156.223    2.84188    -10.1006  
158.487    2.98049    -10.1594  
160.785    3.121      -10.2171  
163.115    3.26342    -10.2738  
165.48     3.40775    -10.3295  
167.878    3.57346    -10.372   
170.312    3.74114    -10.4127  
172.78     3.91079    -10.4515  
175.285    4.08239    -10.4885  
177.826    4.25593    -10.5234  
180.403    4.42753    -10.5576  
183.018    4.60103    -10.5898  
185.671    4.77641    -10.6201  
188.362    4.95367    -10.6483  
191.093    5.13279    -10.6745  
193.863    5.29975    -10.6867  
196.673    5.46805    -10.6968  
199.524    5.63764    -10.705   
202.416    5.80853    -10.7112  
205.35     5.98069    -10.7153  
208.326    6.16464    -10.7178  
211.346    6.34999    -10.7179  
214.41     6.53673    -10.7157  
217.518    6.72484    -10.711   
220.671    6.91429    -10.7038  
223.869    7.1406     -10.7228  
227.114    7.36963    -10.7389  
230.406    7.60139    -10.7519  
233.746    7.83585    -10.7618  
237.134    8.07301    -10.7684  
240.572    8.23606    -10.7062  
244.059    8.39892    -10.6418  
247.596    8.56155    -10.5751  
251.185    8.72393    -10.5062  
254.826    8.88603    -10.4349  
258.52     9.08169    -10.3927  
262.267    9.27816    -10.3476  
266.069    9.4754     -10.2997  
269.926    9.67339    -10.2489  
273.838    9.87209    -10.1952  
277.808    10.0586    -10.1398  
281.835    10.2456    -10.0818  
285.92     10.4331    -10.0211  
290.064    10.621     -9.95775  
294.269    10.8094    -9.89173  
298.534    11.0368    -9.77633  
302.862    11.2638    -9.65652  
307.252    11.4902    -9.53226  
311.705    11.7159    -9.40356  
316.224    11.941     -9.27039  
320.807    12.1186    -9.20976  
325.458    12.2967    -9.14688  
330.175    12.4754    -9.08171  
334.961    12.6547    -9.01425  
339.816    12.8345    -8.94448  
344.742    13.0312    -8.78958  
349.739    13.2264    -8.63095  
354.809    13.4201    -8.46859  
359.952    13.6122    -8.30251  
365.169    13.8027    -8.13273  
370.463    13.9741    -8.03705  
375.833    14.1456    -7.93896  
381.28     14.317     -7.83845  
386.807    14.4885    -7.73551  
392.414    14.66      -7.63011  
398.102    14.8008    -7.44246  
403.873    14.9393    -7.25239  
409.727    15.0755    -7.05996  
415.666    15.2093    -6.86516  
421.691    15.3406    -6.66804  
427.804    15.4858    -6.50553  
434.005    15.6296    -6.34055  
440.296    15.772     -6.17312  
446.678    15.9129    -6.00324  
453.153    16.0522    -5.83093  
459.721    16.2359    -5.62883  
466.385    16.4178    -5.42278  
473.145    16.5978    -5.21278  
480.004    16.7757    -4.99885  
486.961    16.9515    -4.78099  
494.02     17.0593    -4.6063   
501.181    17.1654    -4.42985  
508.446    17.27      -4.25165  
515.816    17.3728    -4.07171  
523.292    17.474     -3.89003  
530.878    17.6221    -3.68597  
538.573    17.7683    -3.47885  
546.38     17.9127    -3.26868  
554.299    18.0553    -3.05547  
562.334    18.1958    -2.83922  
570.485    18.2964    -2.56994  
578.755    18.3933    -2.29827  
587.144    18.4862    -2.02427  
595.654    18.5753    -1.74798  
604.289    18.6605    -1.46946  
613.048    18.7384    -1.27553  
621.934    18.8145    -1.08012  
630.949    18.8888    -0.883243 
640.095    18.9613    -0.68492  
649.373    19.0319    -0.485162 
658.786    19.1336    -0.220991 
668.335    19.2322    0.0459238 
678.023    19.3275    0.31555   
687.851    19.4195    0.587857  
697.822    19.5081    0.86281   
707.937    19.6244    1.09061   
718.198    19.7389    1.32122   
728.609    19.8515    1.55462   
739.17     19.9622    1.79081   
749.885    20.0708    2.02978   
760.754    20.1367    2.30187   
771.782    20.1993    2.57608   
782.969    20.2586    2.85236   
794.318    20.3146    3.1307    
805.832    20.3672    3.41105   
817.513    20.4151    3.67787   
829.363    20.46      3.94645   
841.384    20.5017    4.21678   
853.58     20.5403    4.48882   
865.953    20.5756    4.76255   
878.505    20.6309    5.06227   
891.239    20.6824    5.36445   
904.158    20.7303    5.66905   
917.264    20.7744    5.97603   
930.56     20.8147    6.28536   
944.049    20.8684    6.5687    
957.733    20.9192    6.85441   
971.615    20.9669    7.14247   
985.699    21.0115    7.43285   
999.987    21.0529    7.72554   
1014.48    21.0742    7.98935   
1029.19    21.0927    8.25468   
1044.11    21.1085    8.52153   
1059.24    21.1215    8.78986   
1074.59    21.1317    9.05966   
1090.17    21.1874    9.37834   
1105.97    21.2399    9.70012   
1122       21.289     10.025    
1138.27    21.3346    10.353    
1154.77    21.3767    10.684    
1171.51    21.3826    11.0469   
1188.49    21.3837    11.4125   
1205.71    21.3799    11.7806   
1223.19    21.3711    12.1513   
1240.92    21.3573    12.5244   
1258.91    21.4204    12.8475   
1277.16    21.4809    13.1739   
1295.67    21.5386    13.5039   
1314.45    21.5936    13.8373   
1333.5     21.6457    14.1742   
1352.83    21.6454    14.5459   
1372.44    21.6405    14.9204   
1392.34    21.6312    15.2979   
1412.52    21.6172    15.6782   
1432.99    21.5986    16.0613   
1453.77    21.6041    16.4574   
1474.84    21.605     16.8571   
1496.22    21.6013    17.2604   
1517.9     21.5928    17.6673   
1539.91    21.5794    18.0777   
1562.23    21.5918    18.4807   
1584.87    21.5999    18.8876   
1607.85    21.6038    19.2985   
1631.15    21.6033    19.7133   
1654.8     21.5984    20.1321   
1678.78    21.6116    20.57     
1703.12    21.6203    21.0125   
1727.8     21.6244    21.4598   
1752.85    21.6238    21.9118   
1778.26    21.6185    22.3685   
1804.03    21.6539    22.8123   
1830.18    21.6856    23.2614   
1856.71    21.7137    23.7157   
1883.62    21.7379    24.1753   
1910.93    21.7581    24.6402   
1938.63    21.7081    25.135    
1966.73    21.652     25.6345   
1995.24    21.5898    26.1384   
2024.16    21.5214    26.6468   
2053.5     21.4467    27.1597   
2083.26    21.4105    27.6275   
2113.46    21.3697    28.0997   
2144.1     21.3242    28.5762   
2175.18    21.2738    29.057    
2206.71    21.2184    29.5421   
2238.69    21.2824    30.1158   
2271.14    21.3429    30.6979   
2304.06    21.3996    31.2885   
2337.46    21.4525    31.8878   
2371.34    21.5016    32.4957   
2405.72    21.4149    33.0947   
2440.59    21.3211    33.6998   
2475.96    21.2199    34.3109   
2511.85    21.1112    34.9281   
2548.26    20.9949    35.5513   
2585.2     21.002     36.179    
2622.67    21.0045    36.8152   
2660.69    21.0022    37.4597   
2699.26    20.995     38.1127   
2738.38    20.9827    38.7743   
2778.08    20.9357    39.4523   
2818.35    20.8825    40.1388   
2859.2     20.8229    40.8337   
2900.64    20.7568    41.5372   
2942.69    20.6841    42.2493   
2985.34    20.7071    42.9071   
3028.62    20.7267    43.5735   
3072.52    20.7427    44.2484   
3117.05    20.7551    44.9321   
3162.24    20.7637    45.6246   
3208.07    20.7946    46.346    
3254.58    20.822     47.0772   
3301.75    20.8459    47.8184   
3349.61    20.8661    48.5696   
3398.16    20.8824    49.3309   
3447.42    20.7469    50.1844   
3497.39    20.6023    51.0485   
3548.09    20.4483    51.9231   
3599.52    20.2847    52.8084   
3651.69    20.1113    53.7044   
3704.63    20.045     54.4878   
3758.33    19.9733    55.2806   
3812.8     19.896     56.0827   
3868.07    19.8131    56.8943   
3924.14    19.7244    57.7155   
3981.02    19.7436    58.8239   
4038.73    19.7568    59.9516   
4097.27    19.764     61.0989   
4156.66    19.765     62.2661   
4216.91    19.7594    63.4534   
4278.04    19.5599    64.3702   
4340.05    19.3516    65.2968   
4402.96    19.1342    66.2334   
4466.78    18.9077    67.18     
4531.53    18.6718    68.1366   
4597.21    18.9004    69.2889   
4663.85    19.1314    70.4605   
4731.45    19.3648    71.6518   
4800.04    19.6007    72.8632   
4869.61    19.839     74.0949   
4940.2     19.7491    75.1078   
5011.81    19.6533    76.1328   
5084.46    19.5518    77.1702   
5158.16    19.4443    78.22     
5232.92    19.3306    79.2824   
5308.78    19.1575    80.6341   
5385.73    18.9737    82.0059   
5463.8     18.7787    83.398    
5542.99    18.5724    84.8106   
5623.34    18.3545    86.244    
5704.85    18.4508    87.5471   
5787.55    18.546     88.8695   
5871.44    18.6399    90.2115   
5956.54    18.7325    91.5734   
