# Freq.    Mag.
0          1.76016e-05
8          1.71979e-05
16         1.54997e-05
24         1.40473e-05
32         1.24381e-05
40         1.10666e-05
48         1.03676e-05
56         9.26177e-06
64         8.20839e-06
72         7.30683e-06
80         6.52752e-06
88         6.01613e-06
96         5.4776e-06
104        5.12453e-06
112        4.86179e-06
120        4.7662e-06
128        4.66903e-06
136        4.19929e-06
144        3.96258e-06
152        3.68604e-06
160        3.48544e-06
168        3.38053e-06
176        3.13778e-06
184        3.00122e-06
192        3.04277e-06
200        2.89065e-06
208        2.77805e-06
216        2.67502e-06
224        2.63155e-06
232        2.58282e-06
240        2.45093e-06
248        2.34266e-06
256        2.39783e-06
264        2.45757e-06
272        2.43308e-06
280        2.37096e-06
288        2.3305e-06
296        2.35474e-06
304        2.26924e-06
312        2.0731e-06
320        1.9337e-06
328        1.7889e-06
336        1.681e-06 
344        1.78598e-06
352        1.90168e-06
360        1.90705e-06
368        1.77612e-06
376        1.61502e-06
384        1.59485e-06
392        1.60702e-06
400        1.61959e-06
408        1.54425e-06
416        1.37662e-06
424        1.36725e-06
432        1.50344e-06
440        1.60552e-06
448        1.60414e-06
456        1.56893e-06
464        1.50199e-06
472        1.46887e-06
480        1.48717e-06
488        1.50883e-06
496        1.46079e-06
504        1.38386e-06
512        1.32505e-06
520        1.31284e-06
528        1.28305e-06
536        1.27013e-06
544        1.31381e-06
552        1.31002e-06
560        1.27446e-06
568        1.24678e-06
576        1.24908e-06
584        1.29016e-06
592        1.30188e-06
600        1.30111e-06
608        1.27522e-06
616        1.18107e-06
624        1.13902e-06
632        1.15451e-06
640        1.22526e-06
648        1.30205e-06
656        1.27607e-06
664        1.18578e-06
672        1.10182e-06
680        1.08389e-06
688        1.05309e-06
696        1.03271e-06
704        1.06242e-06
712        1.07694e-06
720        1.10166e-06
728        1.14388e-06
736        1.16693e-06
744        1.10478e-06
752        1.0173e-06
760        9.69084e-07
768        9.49361e-07
776        9.30627e-07
784        9.25505e-07
792        9.25037e-07
800        9.60481e-07
808        1.01505e-06
816        1.06366e-06
824        1.14338e-06
832        1.19401e-06
840        1.18783e-06
848        1.15287e-06
856        1.09513e-06
864        1.0295e-06
872        9.83358e-07
880        9.06624e-07
888        8.84604e-07
896        9.15523e-07
904        9.09334e-07
912        9.21488e-07
920        9.10524e-07
928        8.81156e-07
936        8.7495e-07
944        8.67289e-07
952        8.66372e-07
960        9.00445e-07
968        9.05856e-07
976        1.08309e-06
984        1.90088e-06
992        2.56215e-06
1000       2.60089e-06
1008       2.51501e-06
1016       1.82182e-06
1024       1.01574e-06
1032       8.68682e-07
1040       8.62696e-07
1048       8.71899e-07
1056       8.27916e-07
1064       7.62604e-07
1072       7.69151e-07
1080       8.3426e-07
1088       8.75716e-07
1096       8.77327e-07
1104       8.75069e-07
1112       8.84561e-07
1120       8.8573e-07
1128       8.41114e-07
1136       8.10816e-07
1144       8.03125e-07
1152       8.12599e-07
1160       7.93684e-07
1168       7.60538e-07
1176       7.47083e-07
1184       7.3672e-07
1192       7.44526e-07
1200       7.40051e-07
1208       7.79502e-07
1216       8.41634e-07
1224       8.52432e-07
1232       8.47724e-07
1240       8.18984e-07
1248       7.5539e-07
1256       7.45783e-07
1264       7.90204e-07
1272       7.96547e-07
1280       7.92135e-07
1288       7.59883e-07
1296       7.26038e-07
1304       7.07941e-07
1312       7.26339e-07
1320       7.85108e-07
1328       8.03947e-07
1336       7.7148e-07
1344       7.52438e-07
1352       7.85906e-07
1360       8.18039e-07
1368       8.44935e-07
1376       8.5173e-07
1384       8.03838e-07
1392       7.56715e-07
1400       7.3478e-07
1408       7.51472e-07
1416       7.74434e-07
1424       7.59233e-07
1432       7.39936e-07
1440       7.38696e-07
1448       7.64383e-07
1456       7.52649e-07
1464       7.49842e-07
1472       7.60183e-07
1480       7.53652e-07
1488       7.47131e-07
1496       7.06176e-07
1504       6.83957e-07
1512       6.99729e-07
1520       6.95448e-07
1528       6.78903e-07
1536       6.94303e-07
1544       7.1956e-07
1552       7.38794e-07
1560       7.71573e-07
1568       8.03997e-07
1576       7.92329e-07
1584       7.38781e-07
1592       7.21494e-07
1600       7.31754e-07
1608       7.4096e-07
1616       7.40132e-07
1624       7.55036e-07
1632       7.62664e-07
1640       7.47075e-07
1648       7.26485e-07
1656       7.19266e-07
1664       7.63922e-07
1672       8.00954e-07
1680       8.10173e-07
1688       7.6988e-07
1696       7.54491e-07
1704       7.86935e-07
1712       8.12142e-07
1720       8.04478e-07
1728       7.89699e-07
1736       7.92641e-07
1744       8.00183e-07
1752       7.80574e-07
1760       7.2461e-07
1768       6.89287e-07
1776       6.75532e-07
1784       6.61349e-07
1792       6.65004e-07
1800       7.0534e-07
1808       7.76995e-07
1816       8.3052e-07
1824       8.22973e-07
1832       7.9632e-07
1840       7.74444e-07
1848       7.20851e-07
1856       6.65701e-07
1864       6.3271e-07
1872       6.51153e-07
1880       7.00995e-07
1888       7.24382e-07
1896       7.37087e-07
1904       7.42834e-07
1912       7.62043e-07
1920       7.76705e-07
1928       7.70829e-07
1936       7.80503e-07
1944       7.56503e-07
1952       7.39233e-07
1960       7.59046e-07
1968       7.79426e-07
1976       7.88475e-07
1984       7.59244e-07
1992       6.97874e-07
2000       6.2788e-07
2008       6.05808e-07
2016       6.41314e-07
2024       6.81851e-07
2032       6.74623e-07
2040       6.60536e-07
2048       6.71796e-07
2056       6.93329e-07
2064       7.12985e-07
2072       7.18031e-07
2080       7.1921e-07
2088       7.36966e-07
2096       7.2656e-07
2104       7.28334e-07
2112       7.28746e-07
2120       7.14153e-07
2128       6.89815e-07
2136       6.57081e-07
2144       6.23955e-07
2152       6.1728e-07
2160       6.50365e-07
2168       6.82213e-07
2176       7.1082e-07
2184       7.10769e-07
2192       7.08013e-07
2200       7.02669e-07
2208       7.10234e-07
2216       7.25957e-07
2224       7.28902e-07
2232       7.39435e-07
2240       6.88702e-07
2248       6.1757e-07
2256       5.83209e-07
2264       6.01176e-07
2272       6.30705e-07
2280       6.68106e-07
2288       6.98515e-07
2296       6.97802e-07
2304       6.80513e-07
2312       6.53412e-07
2320       6.3827e-07
2328       6.24108e-07
2336       6.21005e-07
2344       6.34058e-07
2352       6.49333e-07
2360       6.68286e-07
2368       7.05945e-07
2376       7.13057e-07
2384       6.8864e-07
2392       6.86191e-07
2400       6.77808e-07
2408       6.78483e-07
2416       7.02093e-07
2424       7.36299e-07
2432       7.45681e-07
2440       6.92849e-07
2448       6.43502e-07
2456       6.38259e-07
2464       6.62535e-07
2472       6.59236e-07
2480       6.38734e-07
2488       6.47133e-07
2496       6.61051e-07
2504       6.45553e-07
2512       6.41682e-07
2520       6.66374e-07
2528       7.02243e-07
2536       7.24255e-07
2544       7.31399e-07
2552       6.97092e-07
2560       6.60536e-07
2568       6.49429e-07
2576       6.68477e-07
2584       7.12008e-07
2592       7.37647e-07
2600       6.88022e-07
2608       6.50731e-07
2616       6.66275e-07
2624       6.94555e-07
2632       6.73433e-07
2640       6.61172e-07
2648       6.82724e-07
2656       7.20985e-07
2664       7.51023e-07
2672       7.50143e-07
2680       7.11695e-07
2688       6.81725e-07
2696       6.97332e-07
2704       7.39132e-07
2712       7.38112e-07
2720       7.16096e-07
2728       6.78778e-07
2736       6.63551e-07
2744       6.84203e-07
2752       7.01298e-07
2760       7.11071e-07
2768       7.25426e-07
2776       7.06655e-07
2784       6.65979e-07
2792       6.56073e-07
2800       6.70961e-07
2808       6.9142e-07
2816       7.01013e-07
2824       6.93429e-07
2832       7.21223e-07
2840       7.66685e-07
2848       7.52969e-07
2856       6.81287e-07
2864       6.35903e-07
2872       6.51394e-07
2880       6.90603e-07
2888       7.05824e-07
2896       7.05507e-07
2904       7.19349e-07
2912       7.29271e-07
2920       7.16483e-07
2928       6.89858e-07
2936       6.80068e-07
2944       6.64178e-07
2952       6.59275e-07
2960       6.94694e-07
2968       7.09059e-07
2976       7.25202e-07
2984       8.60319e-07
2992       1.02159e-06
3000       1.05742e-06
3008       1.04881e-06
3016       8.84368e-07
3024       7.09012e-07
3032       6.66208e-07
3040       6.68696e-07
3048       6.91969e-07
3056       7.02558e-07
3064       6.76732e-07
3072       6.50821e-07
3080       6.40976e-07
3088       6.6012e-07
3096       6.85645e-07
3104       7.20213e-07
3112       7.17949e-07
3120       6.65263e-07
3128       6.47574e-07
3136       6.45691e-07
3144       6.48648e-07
3152       6.60093e-07
3160       6.6296e-07
3168       6.82098e-07
3176       6.91582e-07
3184       6.82523e-07
3192       6.71851e-07
3200       6.49605e-07
3208       6.57393e-07
3216       6.78033e-07
3224       6.89885e-07
3232       6.86154e-07
3240       6.68546e-07
3248       6.53356e-07
3256       6.65173e-07
3264       6.59686e-07
3272       6.50287e-07
3280       6.71804e-07
3288       7.13852e-07
3296       7.40871e-07
3304       7.29642e-07
3312       7.01421e-07
3320       6.80342e-07
3328       6.79261e-07
3336       6.72253e-07
3344       6.32184e-07
3352       6.02284e-07
3360       6.05504e-07
3368       6.20838e-07
3376       6.22212e-07
3384       6.1401e-07
3392       6.15571e-07
3400       6.32302e-07
3408       6.5218e-07
3416       6.61353e-07
3424       6.47587e-07
3432       6.42628e-07
3440       6.49862e-07
3448       6.65389e-07
3456       6.60333e-07
3464       6.72043e-07
3472       6.81394e-07
3480       6.56966e-07
3488       6.20539e-07
3496       6.05221e-07
3504       6.22645e-07
3512       6.36065e-07
3520       6.44389e-07
3528       6.77994e-07
3536       7.12537e-07
3544       7.14184e-07
3552       7.04045e-07
3560       7.06817e-07
3568       7.06522e-07
3576       6.95008e-07
3584       6.52643e-07
3592       6.32106e-07
3600       6.46249e-07
3608       6.47281e-07
3616       6.45987e-07
3624       6.45692e-07
3632       6.36189e-07
3640       6.46106e-07
3648       6.67686e-07
3656       6.43526e-07
3664       5.9545e-07
3672       5.98682e-07
3680       5.75512e-07
3688       5.55662e-07
3696       5.51851e-07
3704       6.03131e-07
3712       6.32033e-07
3720       6.0238e-07
3728       6.12546e-07
3736       6.32797e-07
3744       6.52116e-07
3752       6.75419e-07
3760       6.91296e-07
3768       7.00494e-07
3776       6.94061e-07
3784       6.66679e-07
3792       6.53148e-07
3800       6.71603e-07
3808       6.87635e-07
3816       6.86457e-07
3824       6.6296e-07
3832       6.28487e-07
3840       6.19628e-07
3848       6.34391e-07
3856       6.64161e-07
3864       6.88975e-07
3872       6.87898e-07
3880       6.9632e-07
3888       7.11035e-07
3896       7.50024e-07
3904       7.6858e-07
3912       7.28386e-07
3920       6.85963e-07
3928       6.4424e-07
3936       6.49138e-07
3944       6.98399e-07
3952       7.06839e-07
3960       6.80533e-07
3968       6.59239e-07
3976       6.58632e-07
3984       6.97923e-07
3992       7.03159e-07
4000       6.80636e-07
4008       6.765e-07 
4016       6.69841e-07
4024       6.23571e-07
4032       6.00746e-07
4040       5.96954e-07
4048       5.87715e-07
4056       6.04809e-07
4064       6.42232e-07
4072       6.76631e-07
4080       6.67104e-07
4088       6.44552e-07
4096       6.29818e-07
4104       6.34763e-07
4112       6.56134e-07
4120       6.73632e-07
4128       6.81371e-07
4136       6.88118e-07
4144       6.72464e-07
4152       6.65439e-07
4160       6.89902e-07
4168       6.75521e-07
4176       6.44862e-07
4184       6.06643e-07
4192       6.12145e-07
4200       6.51911e-07
4208       6.5535e-07
4216       6.54545e-07
4224       6.33438e-07
4232       6.15699e-07
4240       6.1259e-07
4248       5.90638e-07
4256       5.77019e-07
4264       5.77646e-07
4272       6.05795e-07
4280       6.4463e-07
4288       6.68897e-07
4296       7.00667e-07
4304       7.09019e-07
4312       6.94781e-07
4320       6.85979e-07
4328       6.73864e-07
4336       6.46896e-07
4344       6.14921e-07
4352       6.14106e-07
4360       6.25017e-07
4368       6.27683e-07
4376       6.15165e-07
4384       6.19441e-07
4392       6.23268e-07
4400       6.43635e-07
4408       7.10979e-07
4416       7.57159e-07
4424       7.59535e-07
4432       7.34887e-07
4440       7.00971e-07
4448       6.88802e-07
4456       6.95666e-07
4464       7.13295e-07
4472       7.62636e-07
4480       7.72207e-07
4488       7.18734e-07
4496       6.64339e-07
4504       6.2251e-07
4512       6.1175e-07
4520       6.46142e-07
4528       7.0915e-07
4536       7.61862e-07
4544       7.7407e-07
4552       7.58413e-07
4560       7.28456e-07
4568       6.94304e-07
4576       6.56253e-07
4584       6.12536e-07
4592       6.00757e-07
4600       6.38314e-07
4608       6.77097e-07
4616       6.81996e-07
4624       6.60096e-07
4632       6.17439e-07
4640       5.77554e-07
4648       5.59979e-07
4656       5.80645e-07
4664       6.16836e-07
4672       6.73137e-07
4680       6.96652e-07
4688       7.06353e-07
4696       6.91864e-07
4704       6.60293e-07
4712       6.54729e-07
4720       6.87558e-07
4728       7.18011e-07
4736       7.14876e-07
4744       6.79382e-07
4752       6.46301e-07
4760       6.41735e-07
4768       6.81741e-07
4776       7.37969e-07
4784       7.50745e-07
4792       7.28168e-07
4800       6.9065e-07
4808       6.48242e-07
4816       6.10505e-07
4824       6.16289e-07
4832       6.25835e-07
4840       6.09532e-07
4848       6.12598e-07
4856       6.15184e-07
4864       6.18066e-07
4872       6.42068e-07
4880       6.54886e-07
4888       6.53818e-07
4896       6.75287e-07
4904       7.33675e-07
4912       7.77248e-07
4920       7.65255e-07
4928       7.53436e-07
4936       7.35442e-07
4944       7.142e-07 
4952       6.74663e-07
4960       6.47983e-07
4968       6.38921e-07
4976       6.40293e-07
4984       7.26291e-07
4992       8.32574e-07
5000       8.68192e-07
5008       8.35275e-07
5016       7.11338e-07
5024       5.95983e-07
5032       5.78064e-07
5040       5.97379e-07
5048       6.06378e-07
5056       6.17638e-07
5064       6.22831e-07
5072       6.00926e-07
5080       5.54882e-07
5088       5.59779e-07
5096       6.00371e-07
5104       6.11633e-07
5112       6.16756e-07
5120       6.21403e-07
5128       6.19509e-07
5136       6.2132e-07
5144       6.26475e-07
5152       6.40567e-07
5160       6.42299e-07
5168       6.30218e-07
5176       6.31655e-07
5184       6.68054e-07
5192       7.00489e-07
5200       6.88068e-07
5208       6.37153e-07
5216       5.98901e-07
5224       5.89807e-07
5232       5.87967e-07
5240       5.85088e-07
5248       6.07641e-07
5256       6.30861e-07
5264       6.32711e-07
5272       6.40385e-07
5280       6.5525e-07
5288       7.01541e-07
5296       7.28371e-07
5304       7.13493e-07
5312       7.04249e-07
5320       6.62039e-07
5328       6.0959e-07
5336       5.86361e-07
5344       6.03852e-07
5352       6.23875e-07
5360       6.31369e-07
5368       6.33086e-07
5376       6.25415e-07
5384       6.42813e-07
5392       6.45811e-07
5400       6.33069e-07
5408       6.2616e-07
5416       6.45296e-07
5424       6.57358e-07
5432       6.38049e-07
5440       6.40294e-07
5448       6.53634e-07
5456       6.55484e-07
5464       6.48577e-07
5472       6.36301e-07
5480       6.55645e-07
5488       7.04901e-07
5496       7.28986e-07
5504       7.04715e-07
5512       6.64981e-07
5520       6.69645e-07
5528       6.78803e-07
5536       6.62742e-07
5544       6.5643e-07
5552       6.3378e-07
5560       6.4616e-07
5568       6.77056e-07
5576       7.05466e-07
5584       7.81645e-07
5592       7.98639e-07
5600       7.97698e-07
5608       7.43893e-07
5616       6.54634e-07
5624       6.45649e-07
5632       6.38525e-07
5640       6.3513e-07
5648       6.20838e-07
5656       6.28932e-07
5664       6.78942e-07
5672       7.1683e-07
5680       7.02089e-07
5688       6.66612e-07
5696       6.61911e-07
5704       6.63252e-07
5712       6.85492e-07
5720       6.89478e-07
5728       6.88648e-07
5736       7.05822e-07
5744       7.29452e-07
5752       7.35233e-07
5760       7.36186e-07
5768       7.35143e-07
5776       6.87489e-07
5784       6.37087e-07
5792       6.1521e-07
5800       6.30683e-07
5808       6.28888e-07
5816       6.40391e-07
5824       6.62897e-07
5832       7.22561e-07
5840       7.55577e-07
5848       7.33703e-07
5856       7.15131e-07
5864       7.241e-07 
5872       6.87212e-07
5880       6.20046e-07
5888       5.93059e-07
5896       5.98533e-07
5904       6.34355e-07
5912       6.67425e-07
5920       6.65677e-07
5928       6.66639e-07
5936       6.69879e-07
5944       6.91695e-07
5952       7.02672e-07
5960       7.04081e-07
5968       6.60638e-07
5976       6.0102e-07
5984       5.70514e-07
5992       5.63486e-07
6000       5.81589e-07
6008       6.16986e-07
6016       6.45167e-07
6024       6.94054e-07
6032       7.2347e-07
6040       7.23473e-07
6048       6.99885e-07
6056       6.91669e-07
6064       6.94956e-07
6072       6.81679e-07
6080       6.58819e-07
6088       6.53974e-07
6096       7.03763e-07
6104       7.37175e-07
6112       7.29134e-07
6120       7.30203e-07
6128       7.09308e-07
6136       6.77411e-07
6144       6.42385e-07
6152       6.24145e-07
6160       6.4764e-07
6168       6.66325e-07
6176       6.625e-07 
6184       6.44876e-07
6192       6.43936e-07
6200       6.75553e-07
6208       7.03918e-07
6216       7.16092e-07
6224       7.25888e-07
6232       6.8449e-07
6240       6.3461e-07
6248       6.32367e-07
6256       6.38721e-07
6264       6.23583e-07
6272       6.03203e-07
6280       6.45605e-07
6288       7.08365e-07
6296       7.2521e-07
6304       7.20786e-07
6312       7.18476e-07
6320       6.94528e-07
6328       6.76674e-07
6336       6.85503e-07
6344       6.88135e-07
6352       6.73822e-07
6360       6.68062e-07
6368       6.75458e-07
6376       7.03666e-07
6384       7.05452e-07
6392       6.78791e-07
6400       6.5824e-07
6408       6.53029e-07
6416       6.57592e-07
6424       6.73963e-07
6432       6.64996e-07
6440       6.48144e-07
6448       6.3154e-07
6456       5.82745e-07
6464       5.56466e-07
6472       5.69246e-07
6480       6.11269e-07
6488       6.68479e-07
6496       6.914e-07 
6504       7.1061e-07
6512       7.18486e-07
6520       6.93921e-07
6528       6.6827e-07
6536       6.57627e-07
6544       6.51307e-07
6552       6.50786e-07
6560       6.4047e-07
6568       6.08777e-07
6576       5.85034e-07
6584       6.26429e-07
6592       7.1123e-07
6600       7.3155e-07
6608       7.18117e-07
6616       6.79591e-07
6624       6.81763e-07
6632       6.94868e-07
6640       6.77379e-07
6648       6.73721e-07
6656       6.67727e-07
6664       6.67105e-07
6672       6.73216e-07
6680       6.6457e-07
6688       6.42982e-07
6696       6.36871e-07
6704       6.38705e-07
6712       5.95013e-07
6720       5.45731e-07
6728       5.58726e-07
6736       6.10325e-07
6744       6.29385e-07
6752       6.47574e-07
6760       6.61697e-07
6768       6.52654e-07
6776       6.52701e-07
6784       6.94301e-07
6792       7.44226e-07
6800       7.7314e-07
6808       7.78687e-07
6816       7.49303e-07
6824       7.15e-07  
6832       7.07522e-07
6840       7.22601e-07
6848       7.4395e-07
6856       7.24797e-07
6864       6.98039e-07
6872       6.78547e-07
6880       6.60196e-07
6888       6.63836e-07
6896       6.53876e-07
6904       6.57714e-07
6912       6.66493e-07
6920       6.39847e-07
6928       6.33933e-07
6936       6.65563e-07
6944       7.15038e-07
6952       7.54517e-07
6960       7.62134e-07
6968       7.49991e-07
