# Freq.    Re    Im
0.999987   -0.368507  -0.00497722
1.00576    -0.368321  -0.00480536
1.01157    -0.368136  -0.00463368
1.01741    -0.367951  -0.00446217
1.02328    -0.367766  -0.00429083
1.02919    -0.36758   -0.00411966
1.03513    -0.367395  -0.00394867
1.0411     -0.36721   -0.00377784
1.04712    -0.367025  -0.00360719
1.05316    -0.366839  -0.00343672
1.05924    -0.366655  -0.00326631
1.06536    -0.366745  -0.00353241
1.07151    -0.366835  -0.00379863
1.07769    -0.366924  -0.00406499
1.08391    -0.367013  -0.00433148
1.09017    -0.367102  -0.0045981
1.09646    -0.367191  -0.00486485
1.10279    -0.36728   -0.00513174
1.10916    -0.367369  -0.00539875
1.11556    -0.367457  -0.0056659
1.122      -0.367545  -0.00593327
1.12848    -0.367526  -0.00601398
1.135      -0.367506  -0.00609468
1.14155    -0.367487  -0.00617537
1.14814    -0.367468  -0.00625605
1.15477    -0.367448  -0.00633673
1.16143    -0.367428  -0.0064174
1.16814    -0.367409  -0.00649806
1.17488    -0.367389  -0.00657871
1.18167    -0.36737   -0.00665935
1.18849    -0.367351  -0.00673992
1.19535    -0.367353  -0.00680829
1.20225    -0.367355  -0.00687667
1.20919    -0.367357  -0.00694505
1.21617    -0.367359  -0.00701343
1.22319    -0.367361  -0.00708181
1.23025    -0.367363  -0.00715019
1.23736    -0.367365  -0.00721857
1.2445     -0.367367  -0.00728696
1.25168    -0.367369  -0.00735534
1.25891    -0.367371  -0.00742378
1.26618    -0.367348  -0.00750534
1.27349    -0.367326  -0.00758688
1.28084    -0.367303  -0.00766842
1.28823    -0.36728   -0.00774995
1.29567    -0.367258  -0.00783146
1.30315    -0.367235  -0.00791297
1.31067    -0.367212  -0.00799447
1.31824    -0.36719   -0.00807595
1.32585    -0.367167  -0.00815743
1.3335     -0.367146  -0.00823885
1.3412     -0.367151  -0.00831697
1.34895    -0.367157  -0.0083951
1.35673    -0.367162  -0.00847323
1.36457    -0.367168  -0.00855136
1.37244    -0.367173  -0.00862949
1.38037    -0.367179  -0.00870763
1.38834    -0.367184  -0.00878577
1.39635    -0.36719   -0.00886391
1.40441    -0.367195  -0.00894205
1.41252    -0.367201  -0.0090202
1.42067    -0.36716   -0.00909984
1.42888    -0.367119  -0.00917947
1.43712    -0.367078  -0.00925907
1.44542    -0.367036  -0.00933866
1.45377    -0.366995  -0.00941824
1.46216    -0.366954  -0.00949779
1.4706     -0.366913  -0.00957733
1.47909    -0.366872  -0.00965685
1.48763    -0.36683   -0.00973635
1.49622    -0.366789  -0.00981596
1.50485    -0.366795  -0.00990091
1.51354    -0.366801  -0.00998588
1.52228    -0.366807  -0.0100708
1.53107    -0.366813  -0.0101558
1.53991    -0.366819  -0.0102408
1.5488     -0.366825  -0.0103258
1.55774    -0.366831  -0.0104107
1.56673    -0.366836  -0.0104957
1.57578    -0.366842  -0.0105807
1.58487    -0.366849  -0.0106656
1.59402    -0.366889  -0.0107412
1.60322    -0.366928  -0.0108168
1.61248    -0.366968  -0.0108923
1.62179    -0.367008  -0.010968 
1.63115    -0.367048  -0.0110436
1.64057    -0.367087  -0.0111192
1.65004    -0.367127  -0.0111949
1.65957    -0.367167  -0.0112705
1.66915    -0.367206  -0.0113462
1.67878    -0.367247  -0.011422 
1.68847    -0.367233  -0.0115224
1.69822    -0.367218  -0.0116228
1.70803    -0.367204  -0.0117232
1.71789    -0.36719   -0.0118236
1.7278     -0.367175  -0.011924 
1.73778    -0.367161  -0.0120244
1.74781    -0.367147  -0.0121247
1.7579     -0.367132  -0.0122251
1.76805    -0.367118  -0.0123254
1.77826    -0.367104  -0.0124259
1.78852    -0.367226  -0.0124284
1.79885    -0.367349  -0.0124309
1.80923    -0.367471  -0.0124334
1.81968    -0.367593  -0.0124359
1.83018    -0.367716  -0.0124385
1.84075    -0.367838  -0.012441 
1.85137    -0.367961  -0.0124435
1.86206    -0.368083  -0.012446 
1.87281    -0.368206  -0.0124485
1.88362    -0.368328  -0.0124509
1.8945     -0.36819   -0.0126499
1.90544    -0.368051  -0.0128488
1.91644    -0.367913  -0.0130475
1.9275     -0.367774  -0.0132461
1.93863    -0.367635  -0.0134445
1.94982    -0.367497  -0.0136428
1.96108    -0.367358  -0.013841 
1.9724     -0.367219  -0.0140389
1.98378    -0.36708   -0.0142368
1.99524    -0.366941  -0.0144345
2.00675    -0.366949  -0.0145293
2.01834    -0.366956  -0.014624 
2.02999    -0.366964  -0.0147188
2.04171    -0.366971  -0.0148135
2.0535     -0.366979  -0.0149083
2.06535    -0.366986  -0.015003 
2.07728    -0.366994  -0.0150978
2.08927    -0.367001  -0.0151926
2.10133    -0.367009  -0.0152874
2.11346    -0.367016  -0.0153822
2.12566    -0.366986  -0.0154975
2.13793    -0.366956  -0.0156129
2.15028    -0.366926  -0.0157282
2.16269    -0.366896  -0.0158436
2.17518    -0.366866  -0.0159589
2.18773    -0.366836  -0.0160742
2.20036    -0.366805  -0.0161895
2.21307    -0.366775  -0.0163047
2.22584    -0.366745  -0.01642  
2.23869    -0.366715  -0.0165352
2.25162    -0.366743  -0.0166531
2.26461    -0.366771  -0.016771 
2.27769    -0.366798  -0.016889 
2.29084    -0.366826  -0.017007 
2.30406    -0.366854  -0.017125 
2.31736    -0.366882  -0.017243 
2.33074    -0.366909  -0.0173611
2.3442     -0.366937  -0.0174791
2.35773    -0.366964  -0.0175972
2.37134    -0.366992  -0.0177154
2.38503    -0.366969  -0.0178342
2.3988     -0.366945  -0.0179531
2.41265    -0.366921  -0.0180719
2.42658    -0.366897  -0.0181907
2.44059    -0.366873  -0.0183095
2.45468    -0.366849  -0.0184283
2.46885    -0.366825  -0.0185471
2.4831     -0.366801  -0.0186659
2.49744    -0.366777  -0.0187846
2.51185    -0.366754  -0.0189035
2.52635    -0.366778  -0.0190392
2.54094    -0.366802  -0.0191749
2.55561    -0.366826  -0.0193106
2.57036    -0.366849  -0.0194464
2.5852     -0.366873  -0.0195822
2.60013    -0.366897  -0.019718 
2.61514    -0.366921  -0.0198538
2.63023    -0.366944  -0.0199897
2.64542    -0.366968  -0.0201255
2.66069    -0.366991  -0.0202613
2.67605    -0.366979  -0.0203828
2.6915     -0.366966  -0.0205042
2.70704    -0.366954  -0.0206257
2.72267    -0.366941  -0.0207471
2.73838    -0.366929  -0.0208685
2.75419    -0.366916  -0.02099  
2.77009    -0.366904  -0.0211114
2.78608    -0.366891  -0.0212328
2.80217    -0.366878  -0.0213543
2.81835    -0.366866  -0.0214757
2.83462    -0.366866  -0.0216211
2.85098    -0.366866  -0.0217665
2.86744    -0.366866  -0.021912 
2.88399    -0.366867  -0.0220574
2.90064    -0.366867  -0.0222029
2.91739    -0.366867  -0.0223483
2.93423    -0.366866  -0.0224938
2.95117    -0.366866  -0.0226392
2.96821    -0.366866  -0.0227847
2.98534    -0.366866  -0.0229302
3.00258    -0.366863  -0.023082 
3.01991    -0.36686   -0.0232339
3.03735    -0.366858  -0.0233857
3.05488    -0.366855  -0.0235376
3.07252    -0.366852  -0.0236894
3.09025    -0.366849  -0.0238413
3.10809    -0.366845  -0.0239931
3.12604    -0.366842  -0.024145 
3.14408    -0.366839  -0.0242968
3.16224    -0.366836  -0.0244488
3.18049    -0.366883  -0.0245879
3.19885    -0.366929  -0.0247271
3.21732    -0.366976  -0.0248663
3.23589    -0.367022  -0.0250055
3.25457    -0.367068  -0.0251448
3.27336    -0.367115  -0.0252841
3.29226    -0.367161  -0.0254235
3.31127    -0.367207  -0.0255629
3.33038    -0.367253  -0.0257023
3.34961    -0.3673    -0.0258418
3.36895    -0.367277  -0.0260214
3.3884     -0.367253  -0.026201 
3.40796    -0.36723   -0.0263806
3.42763    -0.367206  -0.0265601
3.44742    -0.367182  -0.0267396
3.46732    -0.367159  -0.0269191
3.48734    -0.367135  -0.0270986
3.50747    -0.367111  -0.0272781
3.52772    -0.367087  -0.0274575
3.54809    -0.367063  -0.027637 
3.56857    -0.367084  -0.027838 
3.58917    -0.367105  -0.028039 
3.60989    -0.367125  -0.0282401
3.63073    -0.367146  -0.0284412
3.65169    -0.367166  -0.0286423
3.67277    -0.367186  -0.0288434
3.69398    -0.367206  -0.0290446
3.7153     -0.367227  -0.0292458
3.73675    -0.367246  -0.0294471
3.75832    -0.367267  -0.0296485
3.78002    -0.367251  -0.0297993
3.80184    -0.367236  -0.0299502
3.82379    -0.36722   -0.0301011
3.84587    -0.367204  -0.0302519
3.86807    -0.367188  -0.0304027
3.8904     -0.367173  -0.0305535
3.91286    -0.367157  -0.0307043
3.93545    -0.367141  -0.0308552
3.95817    -0.367125  -0.031006 
3.98102    -0.367109  -0.0311567
4.004      -0.367115  -0.0313573
4.02712    -0.367121  -0.0315578
4.05037    -0.367127  -0.0317584
4.07375    -0.367133  -0.0319589
4.09727    -0.367138  -0.0321595
4.12092    -0.367144  -0.0323601
4.14471    -0.367149  -0.0325607
4.16864    -0.367154  -0.0327614
4.1927     -0.367159  -0.032962 
4.21691    -0.367164  -0.0331628
4.24125    -0.367182  -0.0333531
4.26574    -0.3672    -0.0335435
4.29036    -0.367217  -0.0337339
4.31513    -0.367235  -0.0339243
4.34004    -0.367252  -0.0341147
4.3651     -0.367269  -0.0343052
4.3903     -0.367287  -0.0344957
4.41564    -0.367304  -0.0346862
4.44114    -0.36732   -0.0348768
4.46678    -0.367337  -0.0350674
4.49256    -0.36734   -0.0352408
4.5185     -0.367344  -0.0354143
4.54458    -0.367347  -0.0355878
4.57082    -0.367351  -0.0357612
4.59721    -0.367354  -0.0359347
4.62375    -0.367357  -0.0361082
4.65044    -0.36736   -0.0362817
4.67729    -0.367363  -0.0364552
4.70429    -0.367366  -0.0366287
4.73145    -0.367369  -0.0368021
4.75876    -0.367372  -0.0370363
4.78624    -0.367374  -0.0372705
4.81387    -0.367376  -0.0375047
4.84166    -0.367378  -0.0377389
4.86961    -0.36738   -0.0379732
4.89772    -0.367381  -0.0382074
4.926      -0.367383  -0.0384417
4.95443    -0.367384  -0.038676 
4.98304    -0.367385  -0.0389103
5.0118     -0.367387  -0.0391447
5.04074    -0.367399  -0.0394019
5.06984    -0.367411  -0.0396591
5.09911    -0.367422  -0.0399163
5.12854    -0.367434  -0.0401736
5.15815    -0.367445  -0.0404309
5.18793    -0.367456  -0.0406882
5.21788    -0.367467  -0.0409456
5.248      -0.367478  -0.041203 
5.2783     -0.367488  -0.0414605
5.30877    -0.367499  -0.0417179
5.33942    -0.367511  -0.0419376
5.37025    -0.367524  -0.0421573
5.40125    -0.367536  -0.042377 
5.43243    -0.367548  -0.0425968
5.46379    -0.36756   -0.0428166
5.49533    -0.367572  -0.0430364
5.52706    -0.367584  -0.0432563
5.55897    -0.367595  -0.0434761
5.59106    -0.367607  -0.043696 
5.62334    -0.367618  -0.0439159
5.6558     -0.367644  -0.0441634
5.68845    -0.367671  -0.044411 
5.72129    -0.367698  -0.0446586
5.75432    -0.367724  -0.0449063
5.78754    -0.36775   -0.045154 
5.82095    -0.367776  -0.0454018
5.85456    -0.367802  -0.0456497
5.88836    -0.367828  -0.0458976
5.92235    -0.367853  -0.0461455
5.95654    -0.367878  -0.0463935
5.99093    -0.367904  -0.0466416
6.02551    -0.367914  -0.0469691
6.0603     -0.367924  -0.0472966
6.09529    -0.367934  -0.0476242
6.13047    -0.367944  -0.0479518
6.16587    -0.367953  -0.0482795
6.20146    -0.367962  -0.0486072
6.23726    -0.367971  -0.048935 
6.27327    -0.367979  -0.0492629
6.30949    -0.367987  -0.0495908
6.34591    -0.367995  -0.0499188
6.38255    -0.367997  -0.0502403
6.41939    -0.367999  -0.0505619
6.45645    -0.368001  -0.0508835
6.49373    -0.368003  -0.0512051
6.53122    -0.368004  -0.0515268
6.56892    -0.368005  -0.0518486
6.60684    -0.368005  -0.0521704
6.64499    -0.368006  -0.0524922
6.68335    -0.368006  -0.052814 
6.72193    -0.368006  -0.0531359
6.76074    -0.368     -0.0533867
6.79977    -0.367995  -0.0536375
6.83902    -0.36799   -0.0538884
6.87851    -0.367984  -0.0541393
6.91822    -0.367978  -0.0543901
6.95815    -0.367972  -0.0546411
6.99832    -0.367966  -0.054892 
7.03873    -0.36796   -0.055143 
7.07936    -0.367953  -0.0553939
7.12023    -0.367947  -0.0556449
7.16134    -0.367988  -0.0559353
7.20268    -0.368028  -0.0562257
7.24426    -0.368068  -0.0565163
7.28608    -0.368109  -0.056807 
7.32815    -0.368148  -0.0570977
7.37045    -0.368188  -0.0573886
7.413      -0.368228  -0.0576795
7.4558     -0.368267  -0.0579706
7.49884    -0.368306  -0.0582617
7.54213    -0.368345  -0.0585531
7.58567    -0.368333  -0.0589492
7.62946    -0.36832   -0.0593454
7.67351    -0.368306  -0.0597416
7.71781    -0.368293  -0.0601379
7.76236    -0.368279  -0.0605342
7.80718    -0.368264  -0.0609306
7.85225    -0.368249  -0.061327 
7.89758    -0.368234  -0.0617234
7.94317    -0.368218  -0.0621199
7.98903    -0.368202  -0.0625164
8.03515    -0.368217  -0.062833 
8.08154    -0.368233  -0.0631497
8.12819    -0.368248  -0.0634665
8.17512    -0.368263  -0.0637833
8.22231    -0.368278  -0.0641002
8.26978    -0.368293  -0.0644172
8.31752    -0.368307  -0.0647343
8.36554    -0.368321  -0.0650514
8.41384    -0.368335  -0.0653686
8.46241    -0.368348  -0.0656859
8.51126    -0.368361  -0.0660849
8.5604     -0.368372  -0.0664841
8.60982    -0.368384  -0.0668833
8.65952    -0.368394  -0.0672826
8.70952    -0.368405  -0.0676821
8.7598     -0.368415  -0.0680816
8.81037    -0.368425  -0.0684812
8.86123    -0.368434  -0.0688809
8.91239    -0.368443  -0.0692808
8.96384    -0.368451  -0.0696806
9.01559    -0.368457  -0.0700624
9.06763    -0.368463  -0.0704442
9.11998    -0.368468  -0.0708261
9.17263    -0.368473  -0.0712081
9.22559    -0.368477  -0.0715902
9.27885    -0.368481  -0.0719724
9.33241    -0.368484  -0.0723546
9.38629    -0.368487  -0.0727369
9.44048    -0.36849   -0.0731193
9.49498    -0.368493  -0.0735018
9.54979    -0.368561  -0.0739474
9.60493    -0.36863   -0.0743933
9.66038    -0.368698  -0.0748396
9.71615    -0.368765  -0.075286 
9.77224    -0.368832  -0.0757327
9.82865    -0.368898  -0.0761797
9.88539    -0.368964  -0.0766269
9.94246    -0.369029  -0.0770744
9.99986    -0.369094  -0.0775222
10.0576    -0.369159  -0.0779704
10.1157    -0.369122  -0.0784077
10.1741    -0.369084  -0.0788451
10.2328    -0.369046  -0.0792825
10.2919    -0.369007  -0.0797199
10.3513    -0.368968  -0.0801573
10.411     -0.368928  -0.0805948
10.4711    -0.368888  -0.0810322
10.5316    -0.368847  -0.0814697
10.5924    -0.368806  -0.0819072
10.6535    -0.368764  -0.0823447
10.715     -0.368801  -0.0828479
10.7769    -0.368837  -0.0833514
10.8391    -0.368873  -0.0838552
10.9017    -0.368908  -0.0843591
10.9646    -0.368942  -0.0848633
11.0279    -0.368976  -0.0853677
11.0916    -0.369009  -0.0858724
11.1556    -0.369042  -0.0863773
11.22      -0.369073  -0.0868825
11.2848    -0.369105  -0.0873878
11.35      -0.369135  -0.0878934
11.4155    -0.369169  -0.0883616
11.4814    -0.369202  -0.08883  
11.5477    -0.369235  -0.0892985
11.6143    -0.369267  -0.0897673
11.6814    -0.369299  -0.0902364
11.7488    -0.36933   -0.0907056
11.8166    -0.369361  -0.091175 
11.8849    -0.369391  -0.0916447
11.9535    -0.36942   -0.0921145
12.0225    -0.369449  -0.0925846
12.0919    -0.369502  -0.0931071
12.1617    -0.369554  -0.0936299
12.2319    -0.369605  -0.094153 
12.3025    -0.369655  -0.0946765
12.3735    -0.369705  -0.0952002
12.445     -0.369754  -0.0957243
12.5168    -0.369803  -0.0962486
12.5891    -0.369851  -0.0967733
12.6618    -0.369898  -0.0972983
12.7349    -0.369944  -0.0978236
12.8084    -0.369905  -0.0984465
12.8823    -0.369865  -0.0990695
12.9567    -0.369824  -0.0996927
13.0315    -0.369782  -0.100316 
13.1067    -0.369739  -0.100939 
13.1824    -0.369695  -0.101563 
13.2585    -0.36965   -0.102186 
13.335     -0.369604  -0.10281  
13.412     -0.369557  -0.103434 
13.4894    -0.369508  -0.104058 
13.5673    -0.369568  -0.104652 
13.6456    -0.369626  -0.105245 
13.7244    -0.369684  -0.10584  
13.8037    -0.36974   -0.106434 
13.8833    -0.369796  -0.107029 
13.9635    -0.369851  -0.107625 
14.0441    -0.369906  -0.108221 
14.1252    -0.369959  -0.108817 
14.2067    -0.370012  -0.109414 
14.2887    -0.370064  -0.110011 
14.3712    -0.370079  -0.110592 
14.4542    -0.370094  -0.111173 
14.5376    -0.370107  -0.111754 
14.6216    -0.37012   -0.112336 
14.706     -0.370132  -0.112917 
14.7909    -0.370143  -0.113499 
14.8763    -0.370154  -0.114082 
14.9621    -0.370163  -0.114665 
15.0485    -0.370172  -0.115247 
15.1354    -0.37018   -0.115831 
15.2228    -0.370231  -0.116506 
15.3107    -0.370281  -0.117183 
15.3991    -0.37033   -0.11786  
15.4879    -0.370377  -0.118537 
15.5774    -0.370424  -0.119215 
15.6673    -0.370469  -0.119893 
15.7577    -0.370513  -0.120572 
15.8487    -0.370557  -0.121251 
15.9402    -0.370599  -0.121931 
16.0322    -0.37064   -0.122611 
16.1248    -0.370656  -0.123346 
16.2179    -0.370671  -0.124082 
16.3115    -0.370685  -0.124818 
16.4057    -0.370697  -0.125555 
16.5004    -0.370708  -0.126292 
16.5956    -0.370718  -0.127029 
16.6914    -0.370726  -0.127767 
16.7878    -0.370733  -0.128506 
16.8847    -0.370739  -0.129245 
16.9822    -0.370744  -0.129984 
17.0802    -0.370738  -0.13072  
17.1788    -0.370731  -0.131456 
17.278     -0.370723  -0.132192 
17.3778    -0.370713  -0.132929 
17.4781    -0.370702  -0.133666 
17.579     -0.37069   -0.134404 
17.6805    -0.370676  -0.135142 
17.7825    -0.370661  -0.135881 
17.8852    -0.370644  -0.13662  
17.9885    -0.370627  -0.137359 
18.0923    -0.37063   -0.138058 
18.1968    -0.370631  -0.138757 
18.3018    -0.370631  -0.139457 
18.4075    -0.370631  -0.140157 
18.5137    -0.370629  -0.140858 
18.6206    -0.370626  -0.141559 
18.7281    -0.370621  -0.142261 
18.8362    -0.370616  -0.142963 
18.945     -0.37061   -0.143666 
19.0543    -0.370601  -0.144368 
19.1643    -0.370663  -0.145233 
19.275     -0.370723  -0.146099 
19.3863    -0.370782  -0.146966 
19.4982    -0.370839  -0.147835 
19.6107    -0.370894  -0.148703 
19.7239    -0.370948  -0.149573 
19.8378    -0.370999  -0.150444 
19.9523    -0.37105   -0.151315 
20.0675    -0.371098  -0.152188 
20.1834    -0.371145  -0.153061 
20.2999    -0.37111   -0.153933 
20.4171    -0.371072  -0.154805 
20.535     -0.371033  -0.155678 
20.6535    -0.370992  -0.156552 
20.7727    -0.370949  -0.157426 
20.8927    -0.370904  -0.158301 
21.0133    -0.370858  -0.159176 
21.1346    -0.37081   -0.160052 
21.2566    -0.370759  -0.160929 
21.3793    -0.370707  -0.161806 
21.5027    -0.370752  -0.162723 
21.6269    -0.370795  -0.163642 
21.7517    -0.370837  -0.164562 
21.8773    -0.370876  -0.165482 
22.0036    -0.370914  -0.166404 
22.1306    -0.37095   -0.167327 
22.2584    -0.370984  -0.168251 
22.3869    -0.371016  -0.169176 
22.5161    -0.371047  -0.170101 
22.6461    -0.371075  -0.171028 
22.7769    -0.371107  -0.171976 
22.9084    -0.371137  -0.172924 
23.0406    -0.371166  -0.173874 
23.1736    -0.371192  -0.174824 
23.3074    -0.371217  -0.175776 
23.442     -0.371239  -0.176729 
23.5773    -0.37126   -0.177683 
23.7134    -0.371278  -0.178638 
23.8503    -0.371295  -0.179593 
23.988     -0.371309  -0.18055  
24.1265    -0.371382  -0.18164  
24.2658    -0.371452  -0.182731 
24.4058    -0.371519  -0.183823 
24.5467    -0.371584  -0.184917 
24.6885    -0.371647  -0.186013 
24.831     -0.371708  -0.187111 
24.9743    -0.371766  -0.188209 
25.1185    -0.371821  -0.18931  
25.2635    -0.371874  -0.190412 
25.4094    -0.371925  -0.191515 
25.5561    -0.371862  -0.192649 
25.7036    -0.371797  -0.193784 
25.852     -0.371729  -0.194921 
26.0012    -0.371659  -0.196058 
26.1513    -0.371585  -0.197196 
26.3023    -0.371508  -0.198336 
26.4542    -0.371429  -0.199476 
26.6069    -0.371347  -0.200618 
26.7605    -0.371261  -0.201761 
26.915     -0.371173  -0.202904 
27.0703    -0.371269  -0.203945 
27.2266    -0.371363  -0.204988 
27.3838    -0.371455  -0.206033 
27.5419    -0.371545  -0.207078 
27.7009    -0.371634  -0.208126 
27.8608    -0.371719  -0.209175 
28.0217    -0.371804  -0.210226 
28.1834    -0.371885  -0.211279 
28.3461    -0.371966  -0.212333 
28.5098    -0.372043  -0.213389 
28.6744    -0.372119  -0.214446 
28.8399    -0.372005  -0.215733 
29.0064    -0.371887  -0.217021 
29.1739    -0.371765  -0.21831  
29.3423    -0.371639  -0.2196   
29.5117    -0.37151   -0.220892 
29.682     -0.371377  -0.222185 
29.8534    -0.37124   -0.223479 
30.0257    -0.3711    -0.224774 
30.1991    -0.370956  -0.226071 
30.3734    -0.370808  -0.227369 
30.5488    -0.370657  -0.228668 
30.7251    -0.370688  -0.229974 
30.9025    -0.370717  -0.231281 
31.0809    -0.370742  -0.232591 
31.2603    -0.370764  -0.233904 
31.4408    -0.370783  -0.235218 
31.6223    -0.370798  -0.236535 
31.8049    -0.370811  -0.237853 
31.9885    -0.37082   -0.239174 
