# Freq.    Re    Im
0.999987   -3.95442   -0.0494075
1.01448    -3.95645   -0.0512363
1.02919    -3.95847   -0.053067 
1.04411    -3.96049   -0.0548995
1.05924    -3.96252   -0.0567338
1.07459    -3.96455   -0.0585705
1.09017    -3.96377   -0.0611679
1.10597    -3.96299   -0.0637643
1.122      -3.9622    -0.0663597
1.13827    -3.96142   -0.068954 
1.15477    -3.96064   -0.0715468
1.17151    -3.95931   -0.0733985
1.18849    -3.95798   -0.075249 
1.20571    -3.95665   -0.0770983
1.22319    -3.95532   -0.0789463
1.24092    -3.95399   -0.0807935
1.25891    -3.95619   -0.0826362
1.27716    -3.95838   -0.0844809
1.29567    -3.96058   -0.0863277
1.31445    -3.96278   -0.0881765
1.3335     -3.96497   -0.0900272
1.35283    -3.96382   -0.0914942
1.37244    -3.96267   -0.0929604
1.39234    -3.96151   -0.0944257
1.41252    -3.96036   -0.0958902
1.43299    -3.95921   -0.0973536
1.45377    -3.96004   -0.0981377
1.47484    -3.96087   -0.0989222
1.49622    -3.9617    -0.0997071
1.5179     -3.96253   -0.100492 
1.53991    -3.96337   -0.101279 
1.56223    -3.96219   -0.105773 
1.58487    -3.96101   -0.110263 
1.60785    -3.95983   -0.114752 
1.63115    -3.95864   -0.119238 
1.6548     -3.95745   -0.12372  
1.67878    -3.95742   -0.125922 
1.70312    -3.95739   -0.128124 
1.7278     -3.95735   -0.130326 
1.75285    -3.95732   -0.132528 
1.77826    -3.95729   -0.134731 
1.80403    -3.95656   -0.135865 
1.83018    -3.95584   -0.136999 
1.85671    -3.95511   -0.138133 
1.88362    -3.95438   -0.139267 
1.91093    -3.95366   -0.140399 
1.93863    -3.95499   -0.144245 
1.96673    -3.95632   -0.148094 
1.99524    -3.95765   -0.151945 
2.02416    -3.95897   -0.1558   
2.0535     -3.96029   -0.159658 
2.08326    -3.95862   -0.16242  
2.11346    -3.95696   -0.16518  
2.1441     -3.95529   -0.167938 
2.17518    -3.95362   -0.170693 
2.20671    -3.95195   -0.173445 
2.23869    -3.95368   -0.176122 
2.27114    -3.9554    -0.178803 
2.30406    -3.95713   -0.181485 
2.33746    -3.95885   -0.18417  
2.37134    -3.96057   -0.186857 
2.40572    -3.96298   -0.188927 
2.44059    -3.96538   -0.190999 
2.47596    -3.96779   -0.193073 
2.51185    -3.97019   -0.19515  
2.54826    -3.9726    -0.197231 
2.5852     -3.97011   -0.203997 
2.62267    -3.96761   -0.210755 
2.66069    -3.9651    -0.217506 
2.69926    -3.96258   -0.224248 
2.73838    -3.96006   -0.230983 
2.77808    -3.96205   -0.234543 
2.81835    -3.96404   -0.238106 
2.8592     -3.96603   -0.241674 
2.90064    -3.96801   -0.245245 
2.94269    -3.97      -0.24882  
2.98534    -3.96638   -0.251016 
3.02862    -3.96276   -0.253209 
3.07252    -3.95914   -0.255398 
3.11705    -3.95553   -0.257582 
3.16224    -3.95191   -0.259763 
3.20807    -3.95249   -0.266205 
3.25458    -3.95305   -0.272649 
3.30175    -3.9536    -0.279096 
3.34961    -3.95415   -0.285545 
3.39816    -3.95468   -0.291996 
3.44742    -3.95462   -0.294312 
3.49739    -3.95455   -0.296627 
3.54809    -3.95448   -0.298943 
3.59952    -3.95441   -0.301258 
3.65169    -3.95434   -0.303575 
3.70463    -3.9555    -0.3076   
3.75833    -3.95666   -0.311627 
3.8128     -3.95782   -0.315658 
3.86807    -3.95897   -0.31969  
3.92414    -3.96012   -0.323725 
3.98102    -3.95884   -0.3329   
4.03873    -3.95753   -0.342072 
4.09727    -3.95621   -0.351239 
4.15666    -3.95486   -0.360402 
4.21691    -3.9535    -0.36956  
4.27804    -3.95757   -0.372657 
4.34005    -3.96163   -0.37576  
4.40296    -3.9657    -0.378869 
4.46678    -3.96977   -0.381984 
4.53153    -3.97385   -0.385106 
4.59721    -3.97044   -0.395873 
4.66385    -3.96701   -0.406624 
4.73145    -3.96356   -0.417359 
4.80004    -3.96007   -0.428079 
4.86961    -3.95656   -0.438783 
4.9402     -3.95774   -0.439805 
5.01181    -3.95892   -0.440828 
5.08446    -3.96011   -0.441852 
5.15816    -3.96129   -0.442876 
5.23292    -3.96248   -0.4439   
5.30878    -3.96036   -0.451633 
5.38573    -3.95822   -0.459359 
5.4638     -3.95607   -0.467078 
5.54299    -3.95391   -0.47479  
5.62334    -3.95173   -0.482496 
5.70485    -3.95316   -0.490437 
5.78755    -3.95457   -0.498385 
5.87144    -3.95597   -0.506341 
5.95654    -3.95735   -0.514304 
6.04289    -3.95872   -0.522274 
6.13048    -3.9599    -0.526912 
6.21934    -3.96108   -0.531554 
6.30949    -3.96225   -0.536198 
6.40095    -3.96342   -0.540847 
6.49373    -3.96458   -0.5455   
6.58786    -3.96367   -0.555651 
6.68335    -3.96274   -0.565801 
6.78023    -3.96178   -0.575951 
6.87851    -3.96079   -0.586099 
6.97822    -3.95978   -0.596245 
7.07937    -3.9604    -0.606893 
7.18198    -3.96099   -0.617547 
7.28609    -3.96155   -0.628209 
7.3917     -3.96209   -0.638879 
7.49885    -3.96259   -0.649555 
7.60754    -3.96      -0.653872 
7.71782    -3.95741   -0.658184 
7.82969    -3.95481   -0.662492 
7.94318    -3.95221   -0.666794 
8.05832    -3.94961   -0.671091 
8.17513    -3.95423   -0.684289 
8.29363    -3.95882   -0.697522 
8.41384    -3.96338   -0.710792 
8.5358     -3.96791   -0.724098 
8.65953    -3.9724    -0.737441 
8.78505    -3.96947   -0.748967 
8.91239    -3.96651   -0.760483 
9.04158    -3.96352   -0.771987 
9.17264    -3.9605    -0.783481 
9.3056     -3.95744   -0.794963 
9.44049    -3.95822   -0.805789 
9.57733    -3.95896   -0.816625 
9.71615    -3.95968   -0.82747  
9.85699    -3.96038   -0.838325 
9.99987    -3.96104   -0.849191 
10.1448    -3.9643    -0.860261 
10.2919    -3.96753   -0.871355 
10.4411    -3.97074   -0.882471 
10.5924    -3.97393   -0.893611 
10.7459    -3.97709   -0.904773 
10.9017    -3.97511   -0.921666 
11.0597    -3.97305   -0.938558 
11.22      -3.97093   -0.955449 
11.3827    -3.96873   -0.972339 
11.5477    -3.96646   -0.989227 
11.7151    -3.9657    -0.998099 
11.8849    -3.96492   -1.00697  
12.0571    -3.96413   -1.01585  
12.2319    -3.96331   -1.02473  
12.4092    -3.96247   -1.0336   
12.5891    -3.96323   -1.05234  
12.7716    -3.96392   -1.07111  
12.9567    -3.96452   -1.08991  
13.1445    -3.96504   -1.10873  
13.335     -3.96547   -1.12759  
13.5283    -3.9631    -1.14303  
13.7244    -3.96068   -1.15848  
13.9234    -3.95819   -1.17392  
14.1252    -3.95564   -1.18936  
14.3299    -3.95303   -1.2048   
14.5377    -3.95355   -1.21978  
14.7484    -3.95401   -1.23479  
14.9622    -3.95442   -1.24981  
15.179     -3.95478   -1.26486  
15.3991    -3.95508   -1.27992  
15.6223    -3.95575   -1.30128  
15.8487    -3.95631   -1.32269  
16.0785    -3.95677   -1.34413  
16.3115    -3.95712   -1.36562  
16.548     -3.95737   -1.38714  
16.7878    -3.9587    -1.40565  
17.0312    -3.95994   -1.4242   
17.278     -3.96111   -1.44278  
17.5285    -3.96222   -1.4614   
17.7826    -3.96325   -1.48006  
18.0403    -3.96142   -1.49589  
18.3018    -3.95954   -1.51173  
18.5671    -3.9576    -1.52758  
18.8362    -3.9556    -1.54343  
19.1093    -3.95354   -1.55929  
19.3863    -3.95062   -1.58519  
19.6673    -3.94754   -1.61112  
19.9524    -3.9443    -1.63707  
20.2416    -3.9409    -1.66304  
20.535     -3.93734   -1.68903  
20.8326    -3.93837   -1.71235  
21.1346    -3.9393    -1.73573  
21.441     -3.94011   -1.75917  
21.7518    -3.9408    -1.78266  
22.0671    -3.94139   -1.80622  
22.3869    -3.93969   -1.83198  
22.7114    -3.93785   -1.85779  
23.0406    -3.93586   -1.88365  
23.3746    -3.93372   -1.90954  
23.7134    -3.93143   -1.93548  
24.0572    -3.92957   -1.96463  
24.4059    -3.92753   -1.99383  
24.7596    -3.9253    -2.0231   
25.1185    -3.92289   -2.05242  
25.4826    -3.92029   -2.08181  
25.852     -3.91846   -2.11246  
26.2267    -3.91642   -2.14319  
26.6069    -3.91419   -2.17399  
26.9926    -3.91175   -2.20487  
27.3838    -3.90912   -2.23583  
27.7808    -3.90427   -2.26956  
28.1835    -3.89917   -2.30335  
28.592     -3.89382   -2.33721  
29.0064    -3.88821   -2.37112  
29.4269    -3.88235   -2.40508  
29.8534    -3.8769    -2.43592  
30.2862    -3.87123   -2.4668   
30.7252    -3.86535   -2.49773  
31.1705    -3.85926   -2.5287   
31.6224    -3.85296   -2.5597   
32.0807    -3.84851   -2.59167  
32.5458    -3.84386   -2.62371  
33.0175    -3.83898   -2.65581  
33.4961    -3.83389   -2.68798  
33.9816    -3.82859   -2.72022  
34.4742    -3.82748   -2.7631   
34.9739    -3.82604   -2.8062   
35.4809    -3.82426   -2.8495   
35.9952    -3.82215   -2.89301  
36.5169    -3.8197    -2.93673  
37.0463    -3.80823   -2.97661  
37.5833    -3.7964    -3.01653  
38.128     -3.78422   -3.05648  
38.6807    -3.77168   -3.09646  
39.2414    -3.75878   -3.13646  
39.8102    -3.75938   -3.16947  
40.3873    -3.75982   -3.20263  
40.9727    -3.76008   -3.23593  
41.5666    -3.76018   -3.26939  
42.1691    -3.76011   -3.30299  
42.7804    -3.74551   -3.36352  
43.4005    -3.73015   -3.42425  
44.0296    -3.71404   -3.48516  
44.6678    -3.69716   -3.54624  
45.3153    -3.67951   -3.60749  
45.9721    -3.66837   -3.65191  
46.6385    -3.65683   -3.69644  
47.3145    -3.6449    -3.74108  
48.0004    -3.63257   -3.78583  
48.6961    -3.61985   -3.83068  
49.402     -3.609     -3.88693  
50.1181    -3.59758   -3.94345  
50.8446    -3.5856    -4.00021  
51.5816    -3.57303   -4.05724  
52.3292    -3.55989   -4.11452  
53.0878    -3.54591   -4.17534  
53.8573    -3.53127   -4.23644  
54.638     -3.51597   -4.29782  
55.4299    -3.49999   -4.35947  
56.2334    -3.48334   -4.4214   
57.0485    -3.46866   -4.47495  
57.8755    -3.45347   -4.52869  
58.7144    -3.43776   -4.58263  
59.5654    -3.42154   -4.63676  
60.4289    -3.40479   -4.69108  
61.3048    -3.38373   -4.75607  
62.1934    -3.36192   -4.82131  
63.0949    -3.33933   -4.88679  
64.0095    -3.31596   -4.95251  
64.9373    -3.2918    -5.01846  
65.8786    -3.28012   -5.07837  
66.8335    -3.26792   -5.13863  
67.8023    -3.25521   -5.19925  
68.7851    -3.24198   -5.26021  
69.7822    -3.22822   -5.32152  
70.7937    -3.20139   -5.40758  
71.8198    -3.17336   -5.49418  
72.8609    -3.14413   -5.5813   
73.917     -3.11367   -5.66894  
74.9885    -3.08197   -5.75709  
76.0754    -3.06066   -5.8267   
77.1782    -3.03863   -5.89668  
78.2969    -3.01587   -5.96704  
79.4318    -2.99238   -6.03778  
80.5832    -2.96815   -6.10888  
81.7513    -2.92838   -6.19303  
82.9363    -2.88736   -6.27748  
84.1384    -2.84509   -6.36221  
85.358     -2.80155   -6.44722  
86.5953    -2.75672   -6.53249  
87.8505    -2.71082   -6.61319  
89.1239    -2.66371   -6.69405  
90.4158    -2.61539   -6.77507  
91.7264    -2.56585   -6.85623  
93.056     -2.51506   -6.93752  
94.4049    -2.47207   -7.02156  
95.7733    -2.42792   -7.10594  
97.1615    -2.38259   -7.19064  
98.5699    -2.33608   -7.27566  
99.9987    -2.28837   -7.36098  
101.448    -2.24024   -7.46385  
102.919    -2.19058   -7.56736  
104.411    -2.13935   -7.6715   
105.924    -2.08652   -7.77627  
107.459    -2.03208   -7.88166  
109.017    -1.98325   -7.9837   
110.597    -1.93299   -8.08639  
112.2      -1.88128   -8.18972  
113.827    -1.8281    -8.2937   
115.477    -1.77342   -8.3983   
117.151    -1.69369   -8.50277  
118.849    -1.61195   -8.60737  
120.571    -1.52818   -8.71207  
122.319    -1.44236   -8.81683  
124.092    -1.35446   -8.92165  
125.891    -1.2874    -8.99543  
127.716    -1.21924   -9.06914  
129.567    -1.14997   -9.14278  
131.445    -1.07959   -9.21635  
133.35     -1.00808   -9.28982  
135.283    -0.909378  -9.40843  
137.244    -0.808133  -9.52722  
139.234    -0.704315  -9.64618  
141.252    -0.597894  -9.76528  
143.299    -0.488837  -9.88447  
145.377    -0.392647  -9.9909   
147.484    -0.294379  -10.0975  
149.622    -0.194013  -10.2041  
151.79     -0.0915246 -10.3108  
153.991    0.0131062  -10.4175  
156.223    0.126202   -10.5268  
158.487    0.241669   -10.6359  
160.785    0.359533   -10.745   
163.115    0.479817   -10.8539  
165.48     0.602546   -10.9627  
167.878    0.719351   -11.0862  
170.312    0.838772   -11.21    
172.78     0.960843   -11.3341  
175.285    1.0856     -11.4585  
177.826    1.21307    -11.583   
180.403    1.34635    -11.6805  
183.018    1.48192    -11.7775  
185.671    1.6198     -11.874   
188.362    1.76001    -11.9699  
191.093    1.90256    -12.0653  
193.863    2.05327    -12.1584  
196.673    2.20643    -12.2507  
199.524    2.36206    -12.3421  
202.416    2.52016    -12.4327  
205.35     2.68075    -12.5224  
208.326    2.85151    -12.6318  
211.346    3.02541    -12.7404  
214.41     3.20246    -12.8484  
217.518    3.3827     -12.9555  
220.671    3.56616    -13.0618  
223.869    3.76601    -13.1479  
227.114    3.96894    -13.2323  
230.406    4.17497    -13.315   
233.746    4.3841     -13.396   
237.134    4.59635    -13.4752  
240.572    4.76889    -13.5332  
244.059    4.94336    -13.5899  
247.596    5.11976    -13.6454  
251.185    5.2981     -13.6994  
254.826    5.47837    -13.7521  
258.52     5.67664    -13.8576  
262.267    5.87824    -13.9624  
266.069    6.08321    -14.0665  
269.926    6.29156    -14.1697  
273.838    6.50334    -14.2721  
277.808    6.71379    -14.2761  
281.835    6.9255     -14.2776  
285.92     7.13846    -14.2765  
290.064    7.35264    -14.2728  
294.269    7.568      -14.2665  
298.534    7.80058    -14.3066  
302.862    8.03569    -14.3444  
307.252    8.27335    -14.3798  
311.705    8.51354    -14.4127  
316.224    8.75626    -14.4432  
320.807    9.02914    -14.4939  
325.458    9.30562    -14.5417  
330.175    9.58571    -14.5867  
334.961    9.86942    -14.6287  
339.816    10.1568    -14.6677  
344.742    10.3567    -14.672   
349.739    10.558     -14.6746  
354.809    10.7607    -14.6754  
359.952    10.9647    -14.6743  
365.169    11.17      -14.6714  
370.463    11.4842    -14.5856  
375.833    11.799     -14.494   
381.28     12.1144    -14.3968  
386.807    12.4303    -14.2937  
392.414    12.7466    -14.1848  
398.102    13.0392    -14.1247  
403.873    13.3334    -14.0602  
409.727    13.6291    -13.9912  
415.666    13.9262    -13.9177  
421.691    14.2246    -13.8395  
427.804    14.4376    -13.7449  
434.005    14.6505    -13.6476  
440.296    14.8632    -13.5475  
446.678    15.0759    -13.4446  
453.153    15.2883    -13.339   
459.721    15.6008    -13.2378  
466.385    15.9145    -13.1315  
473.145    16.2294    -13.0199  
480.004    16.5453    -12.903   
486.961    16.8622    -12.7807  
494.02     17.0973    -12.6438  
501.181    17.3318    -12.5035  
508.446    17.5659    -12.3597  
515.816    17.7994    -12.2123  
523.292    18.0323    -12.0615  
530.878    18.2797    -11.9433  
538.573    18.5274    -11.8217  
546.38     18.7753    -11.6966  
554.299    19.0235    -11.5679  
562.334    19.2719    -11.4358  
570.485    19.5456    -11.2249  
578.755    19.8179    -11.009   
587.144    20.0887    -10.7879  
595.654    20.3578    -10.5617  
604.289    20.6252    -10.3303  
613.048    20.815     -10.1595  
621.934    21.0038    -9.98596  
630.949    21.1915    -9.8098   
640.095    21.3783    -9.631    
649.373    21.5639    -9.44956  
658.786    21.7514    -9.17661  
668.335    21.9357    -8.90036  
678.023    22.1167    -8.62082  
687.851    22.2942    -8.33806  
697.822    22.4684    -8.05208  
707.937    22.77      -7.737    
718.198    23.0686    -7.41455  
728.609    23.3641    -7.08471  
739.17     23.6563    -6.74749  
749.885    23.945     -6.40287  
760.754    24.165     -6.21923  
771.782    24.3848    -6.03229  
782.969    24.6043    -5.84203  
794.318    24.8234    -5.64843  
805.832    25.0421    -5.45146  
817.513    25.092     -5.09881  
829.363    25.1368    -4.74583  
841.384    25.1768    -4.3926   
853.58     25.2118    -4.03917  
865.953    25.2419    -3.68562  
878.505    25.3428    -3.33692  
891.239    25.4391    -2.98613  
904.158    25.5306    -2.6333   
917.264    25.6172    -2.27849  
930.56     25.6991    -1.92177  
944.049    25.9344    -1.5513   
957.733    26.166     -1.17432  
971.615    26.3938    -0.790835 
985.699    26.6177    -0.400846 
999.987    26.8376    -0.00436362
1014.48    26.9544    0.245294  
1029.19    27.0693    0.497124  
1044.11    27.1824    0.751119  
1059.24    27.2937    1.00727   
1074.59    27.403     1.26557   
1090.17    27.5339    1.69731   
1105.97    27.6588    2.13345   
1122       27.7776    2.57392   
1138.27    27.8902    3.01865   
1154.77    27.9965    3.46757   
1171.51    27.9862    3.7725    
1188.49    27.9726    4.0776    
1205.71    27.9557    4.38286   
1223.19    27.9354    4.68823   
1240.92    27.9119    4.99367   
1258.91    28.0185    5.36594   
1277.16    28.1212    5.74175   
1295.67    28.2199    6.12108   
1314.45    28.3146    6.5039    
1333.5     28.4051    6.89018   
1352.83    28.4921    7.33599   
1372.44    28.5734    7.78592   
1392.34    28.6489    8.23992   
1412.52    28.7185    8.69792   
1432.99    28.782     9.15989   
1453.77    28.8408    9.69502   
1474.84    28.8913    10.235    
1496.22    28.9335    10.7797   
1517.9     28.967     11.329    
1539.91    28.9918    11.8828   
1562.23    28.978     12.271    
1584.87    28.9597    12.6606   
1607.85    28.9367    13.0517   
1631.15    28.9091    13.4443   
1654.8     28.8768    13.8382   
1678.78    28.9275    14.3649   
1703.12    28.9711    14.8969   
1727.8     29.0076    15.434    
1752.85    29.0368    15.9762   
1778.26    29.0586    16.5234   
1804.03    29.1349    16.9584   
1830.18    29.2074    17.3978   
1856.71    29.276     17.8416   
1883.62    29.3407    18.2898   
1910.93    29.4014    18.7425   
1938.63    29.3324    19.3678   
1966.73    29.2528    19.997    
1995.24    29.1624    20.63     
2024.16    29.061     21.2665   
2053.5     28.9485    21.9064   
2083.26    29.0072    22.4763   
2113.46    29.0601    23.0529   
2144.1     29.1068    23.6364   
2175.18    29.1473    24.2267   
2206.71    29.1814    24.8238   
2238.69    29.0702    25.3278   
2271.14    28.9522    25.8337   
2304.06    28.8275    26.3413   
2337.46    28.6959    26.8507   
2371.34    28.5574    27.3617   
2405.72    28.5439    28.0996   
2440.59    28.5201    28.8467   
2475.96    28.4857    29.6029   
2511.85    28.4405    30.3681   
2548.26    28.3842    31.1425   
2585.2     28.5015    31.8657   
2622.67    28.6136    32.6005   
2660.69    28.7204    33.3471   
2699.26    28.8216    34.1056   
2738.38    28.9171    34.8761   
2778.08    28.7978    35.4687   
2818.35    28.6713    36.065    
2859.2     28.5376    36.6651   
2900.64    28.3965    37.2687   
2942.69    28.248     37.876    
2985.34    28.1658    38.6736   
3028.62    28.0734    39.4802   
3072.52    27.9706    40.2959   
3117.05    27.8571    41.1205   
3162.24    27.7327    41.9542   
3208.07    27.8116    42.7449   
3254.58    27.8858    43.5473   
3301.75    27.9551    44.3614   
3349.61    28.0193    45.1875   
3398.16    28.0784    46.0255   
3447.42    27.6718    46.9127   
3497.39    27.2478    47.8028   
3548.09    26.8061    48.6956   
3599.52    26.3466    49.5907   
3651.69    25.869     50.488    
3704.63    25.9276    51.4608   
3758.33    25.9805    52.4492   
3812.8     26.0274    53.4535   
3868.07    26.068     54.474    
3924.14    26.1024    55.5108   
3981.02    26.0391    56.5342   
4038.73    25.9667    57.572    
4097.27    25.8848    58.6246   
4156.66    25.7934    59.6919   
4216.91    25.6919    60.7741   
4278.04    25.6388    61.7677   
4340.05    25.5784    62.7745   
4402.96    25.5106    63.7945   
4466.78    25.4351    64.8279   
4531.53    25.3517    65.8748   
4597.21    25.252     67.0477   
4663.85    25.1423    68.2375   
4731.45    25.0223    69.4444   
4800.04    24.8917    70.6684   
4869.61    24.7502    71.91     
4940.2     24.6208    73.3428   
5011.81    24.478     74.7993   
5084.46    24.3214    76.2798   
5158.16    24.1507    77.7847   
5232.92    23.9655    79.3143   
5308.78    23.892     80.6987   
5385.73    23.8096    82.1045   
5463.8     23.7178    83.532    
5542.99    23.6166    84.9814   
5623.34    23.5054    86.453    
5704.85    23.429     87.7772   
5787.55    23.3452    89.1195   
5871.44    23.2539    90.4803   
5956.54    23.1549    91.8598   
