# Freq.    Mag.
0          1.6951e-05
8          1.67697e-05
16         1.53706e-05
24         1.43373e-05
32         1.32867e-05
40         1.19968e-05
48         1.13141e-05
56         1.0333e-05
64         9.09685e-06
72         8.16492e-06
80         7.28627e-06
88         6.99881e-06
96         6.83427e-06
104        6.32021e-06
112        5.70335e-06
120        5.0887e-06
128        4.70673e-06
136        4.38307e-06
144        4.02184e-06
152        3.98754e-06
160        4.03543e-06
168        3.84566e-06
176        3.5862e-06
184        3.27587e-06
192        2.94162e-06
200        2.72533e-06
208        2.62142e-06
216        2.61372e-06
224        2.62847e-06
232        2.64085e-06
240        2.66794e-06
248        2.68713e-06
256        2.65103e-06
264        2.47496e-06
272        2.34543e-06
280        2.29526e-06
288        2.42682e-06
296        2.45582e-06
304        2.3949e-06
312        2.25672e-06
320        2.07355e-06
328        1.98615e-06
336        2.04407e-06
344        2.10368e-06
352        1.99934e-06
360        1.87033e-06
368        1.73257e-06
376        1.57888e-06
384        1.6175e-06
392        1.64937e-06
400        1.62646e-06
408        1.5788e-06
416        1.59034e-06
424        1.65904e-06
432        1.66699e-06
440        1.63421e-06
448        1.55189e-06
456        1.49164e-06
464        1.45973e-06
472        1.48973e-06
480        1.56134e-06
488        1.6011e-06
496        1.56291e-06
504        1.50235e-06
512        1.48967e-06
520        1.51482e-06
528        1.48721e-06
536        1.50127e-06
544        1.45848e-06
552        1.44785e-06
560        1.45293e-06
568        1.43526e-06
576        1.4339e-06
584        1.43484e-06
592        1.4638e-06
600        1.47659e-06
608        1.4481e-06
616        1.38011e-06
624        1.25264e-06
632        1.14742e-06
640        1.12169e-06
648        1.14991e-06
656        1.16214e-06
664        1.13418e-06
672        1.10395e-06
680        1.09872e-06
688        1.14508e-06
696        1.18839e-06
704        1.15361e-06
712        1.07755e-06
720        1.03734e-06
728        1.00326e-06
736        1.04646e-06
744        1.09214e-06
752        1.06732e-06
760        1.01607e-06
768        9.19719e-07
776        8.90095e-07
784        9.13319e-07
792        9.39047e-07
800        9.68137e-07
808        9.31841e-07
816        8.78485e-07
824        8.57435e-07
832        8.70822e-07
840        8.92751e-07
848        9.077e-07 
856        9.13592e-07
864        9.44341e-07
872        9.85046e-07
880        9.63465e-07
888        9.27992e-07
896        9.32862e-07
904        8.93549e-07
912        8.76203e-07
920        8.8202e-07
928        8.9177e-07
936        9.25219e-07
944        9.55349e-07
952        9.78885e-07
960        9.65943e-07
968        9.2248e-07
976        8.16981e-07
984        1.26668e-06
992        1.83745e-06
1000       1.95675e-06
1008       1.94762e-06
1016       1.4654e-06
1024       9.66565e-07
1032       8.76185e-07
1040       8.01262e-07
1048       7.98182e-07
1056       8.51702e-07
1064       8.62602e-07
1072       8.26352e-07
1080       8.25996e-07
1088       8.71793e-07
1096       8.89606e-07
1104       8.66818e-07
1112       8.8103e-07
1120       8.93982e-07
1128       9.12814e-07
1136       9.42719e-07
1144       9.90679e-07
1152       9.95144e-07
1160       9.56355e-07
1168       9.59743e-07
1176       9.46198e-07
1184       9.33995e-07
1192       9.20744e-07
1200       9.09076e-07
1208       8.96549e-07
1216       8.92319e-07
1224       9.04354e-07
1232       9.18646e-07
1240       9.26154e-07
1248       9.13036e-07
1256       8.4044e-07
1264       7.77015e-07
1272       7.89004e-07
1280       8.18991e-07
1288       8.39453e-07
1296       8.23101e-07
1304       7.58666e-07
1312       7.36277e-07
1320       7.20965e-07
1328       7.09534e-07
1336       7.02932e-07
1344       7.09807e-07
1352       7.35348e-07
1360       7.49079e-07
1368       7.72565e-07
1376       7.87428e-07
1384       7.70399e-07
1392       7.71986e-07
1400       8.03716e-07
1408       8.64524e-07
1416       9.17506e-07
1424       9.31892e-07
1432       9.00585e-07
1440       8.41876e-07
1448       8.248e-07 
1456       8.1756e-07
1464       8.07843e-07
1472       7.86268e-07
1480       7.63047e-07
1488       7.45627e-07
1496       7.66519e-07
1504       8.05024e-07
1512       8.27813e-07
1520       8.14223e-07
1528       7.93114e-07
1536       7.63509e-07
1544       7.37117e-07
1552       7.53593e-07
1560       7.29647e-07
1568       7.01577e-07
1576       6.82114e-07
1584       6.73888e-07
1592       6.66756e-07
1600       6.58748e-07
1608       6.6934e-07
1616       6.9527e-07
1624       7.30332e-07
1632       7.40591e-07
1640       7.29465e-07
1648       7.38408e-07
1656       7.44591e-07
1664       7.6371e-07
1672       7.7599e-07
1680       7.45359e-07
1688       7.40528e-07
1696       7.38159e-07
1704       7.31514e-07
1712       7.01309e-07
1720       6.95587e-07
1728       7.2239e-07
1736       7.35491e-07
1744       7.28018e-07
1752       7.25472e-07
1760       7.28139e-07
1768       7.18414e-07
1776       7.35617e-07
1784       7.67768e-07
1792       7.65063e-07
1800       7.67288e-07
1808       7.88791e-07
1816       8.22046e-07
1824       8.19922e-07
1832       7.97166e-07
1840       7.43802e-07
1848       7.08454e-07
1856       6.97226e-07
1864       6.6287e-07
1872       6.32138e-07
1880       6.49574e-07
1888       7.02243e-07
1896       7.44214e-07
1904       7.6801e-07
1912       7.70501e-07
1920       7.2067e-07
1928       6.61164e-07
1936       6.46728e-07
1944       6.65259e-07
1952       7.11774e-07
1960       7.37842e-07
1968       7.39237e-07
1976       7.64586e-07
1984       8.12275e-07
1992       8.4164e-07
2000       8.05508e-07
2008       7.47488e-07
2016       7.18851e-07
2024       7.049e-07 
2032       7.03847e-07
2040       6.84919e-07
2048       6.91462e-07
2056       6.95776e-07
2064       6.76128e-07
2072       6.78598e-07
2080       6.9589e-07
2088       7.29868e-07
2096       7.63562e-07
2104       7.80274e-07
2112       7.62185e-07
2120       7.33791e-07
2128       7.29812e-07
2136       7.55179e-07
2144       7.79473e-07
2152       7.74937e-07
2160       7.22509e-07
2168       7.10002e-07
2176       7.32586e-07
2184       7.23909e-07
2192       7.36973e-07
2200       7.75875e-07
2208       8.02291e-07
2216       7.95839e-07
2224       8.02835e-07
2232       7.8168e-07
2240       7.57332e-07
2248       7.87851e-07
2256       7.97659e-07
2264       7.6918e-07
2272       7.2288e-07
2280       7.10311e-07
2288       7.25149e-07
2296       7.45105e-07
2304       7.67793e-07
2312       7.60444e-07
2320       7.56916e-07
2328       7.30556e-07
2336       7.17383e-07
2344       7.06563e-07
2352       7.23362e-07
2360       7.39548e-07
2368       7.38488e-07
2376       7.14133e-07
2384       6.98772e-07
2392       7.01166e-07
2400       6.99957e-07
2408       7.08892e-07
2416       7.37267e-07
2424       7.76926e-07
2432       7.87625e-07
2440       7.73567e-07
2448       7.55148e-07
2456       7.61734e-07
2464       7.4049e-07
2472       7.1312e-07
2480       7.07217e-07
2488       6.96274e-07
2496       6.94209e-07
2504       6.82381e-07
2512       6.617e-07 
2520       6.62094e-07
2528       6.57561e-07
2536       6.68722e-07
2544       7.18973e-07
2552       7.3757e-07
2560       7.16437e-07
2568       7.00727e-07
2576       6.97127e-07
2584       6.8791e-07
2592       6.60055e-07
2600       6.5108e-07
2608       6.62196e-07
2616       6.93892e-07
2624       7.07002e-07
2632       6.84126e-07
2640       6.58493e-07
2648       6.224e-07 
2656       5.949e-07 
2664       5.82182e-07
2672       6.05758e-07
2680       6.74203e-07
2688       7.29882e-07
2696       7.59334e-07
2704       7.36026e-07
2712       7.16515e-07
2720       7.29666e-07
2728       7.42291e-07
2736       7.30714e-07
2744       7.0728e-07
2752       6.96721e-07
2760       7.0104e-07
2768       7.16054e-07
2776       7.29663e-07
2784       7.04929e-07
2792       6.67904e-07
2800       6.78357e-07
2808       7.17846e-07
2816       7.49476e-07
2824       7.47208e-07
2832       7.37158e-07
2840       7.33415e-07
2848       7.198e-07 
2856       6.9825e-07
2864       6.71845e-07
2872       6.54398e-07
2880       6.57626e-07
2888       6.62961e-07
2896       6.30436e-07
2904       6.48404e-07
2912       7.09264e-07
2920       7.54641e-07
2928       7.45953e-07
2936       7.41981e-07
2944       7.63656e-07
2952       7.59605e-07
2960       7.18262e-07
2968       6.83682e-07
2976       7.02275e-07
2984       7.98443e-07
2992       9.04008e-07
3000       8.55798e-07
3008       7.78016e-07
3016       6.57348e-07
3024       5.9681e-07
3032       6.66138e-07
3040       7.16902e-07
3048       7.30524e-07
3056       7.27721e-07
3064       7.33325e-07
3072       7.40348e-07
3080       7.13446e-07
3088       6.85606e-07
3096       6.52965e-07
3104       6.27124e-07
3112       6.4782e-07
3120       6.74529e-07
3128       6.65399e-07
3136       6.32728e-07
3144       6.32292e-07
3152       6.69827e-07
3160       6.8065e-07
3168       6.30963e-07
3176       6.29063e-07
3184       7.00289e-07
3192       7.6294e-07
3200       7.53363e-07
3208       6.95831e-07
3216       6.55447e-07
3224       6.27507e-07
3232       6.50376e-07
3240       6.96683e-07
3248       7.29233e-07
3256       7.49244e-07
3264       7.41706e-07
3272       7.30825e-07
3280       7.25962e-07
3288       6.93705e-07
3296       6.8947e-07
3304       6.86015e-07
3312       7.43312e-07
3320       8.00903e-07
3328       7.99619e-07
3336       7.8178e-07
3344       7.5164e-07
3352       7.33237e-07
3360       7.00155e-07
3368       6.68426e-07
3376       6.59522e-07
3384       6.82425e-07
3392       6.99897e-07
3400       6.81602e-07
3408       6.69598e-07
3416       6.95349e-07
3424       7.19336e-07
3432       7.71753e-07
3440       8.28608e-07
3448       8.46773e-07
3456       8.89861e-07
3464       8.56086e-07
3472       7.91855e-07
3480       7.58722e-07
3488       7.42662e-07
3496       7.24125e-07
3504       6.79324e-07
3512       6.52328e-07
3520       6.25489e-07
3528       6.15212e-07
3536       6.48325e-07
3544       6.50204e-07
3552       6.11105e-07
3560       6.3793e-07
3568       6.83437e-07
3576       7.14152e-07
3584       7.13353e-07
3592       6.97179e-07
3600       6.83333e-07
3608       6.76976e-07
3616       6.61643e-07
3624       6.68834e-07
3632       7.38999e-07
3640       7.75172e-07
3648       7.28683e-07
3656       6.79784e-07
3664       6.86544e-07
3672       7.2679e-07
3680       7.35373e-07
3688       7.21767e-07
3696       6.93396e-07
3704       6.25036e-07
3712       5.83352e-07
3720       6.1201e-07
3728       6.62308e-07
3736       7.10445e-07
3744       7.2424e-07
3752       7.32977e-07
3760       7.41819e-07
3768       7.4435e-07
3776       7.27105e-07
3784       7.06083e-07
3792       6.83676e-07
3800       6.56743e-07
3808       6.71842e-07
3816       7.01439e-07
3824       7.24272e-07
3832       7.44496e-07
3840       7.39345e-07
3848       7.27459e-07
3856       7.36665e-07
3864       7.38652e-07
3872       7.31526e-07
3880       6.89322e-07
3888       6.39749e-07
3896       6.26932e-07
3904       6.57039e-07
3912       6.81227e-07
3920       6.69317e-07
3928       6.85144e-07
3936       6.85919e-07
3944       6.51278e-07
3952       6.49849e-07
3960       6.80093e-07
3968       7.38028e-07
3976       7.5367e-07
3984       7.28227e-07
3992       7.05114e-07
4000       7.1265e-07
4008       7.21071e-07
4016       6.76725e-07
4024       6.51687e-07
4032       6.65383e-07
4040       6.98987e-07
4048       7.3292e-07
4056       7.37985e-07
4064       7.08623e-07
4072       6.82536e-07
4080       6.73836e-07
4088       6.75254e-07
4096       6.79305e-07
4104       6.64135e-07
4112       6.85539e-07
4120       7.02257e-07
4128       6.99752e-07
4136       7.03773e-07
4144       7.09785e-07
4152       7.33829e-07
4160       7.1939e-07
4168       7.14595e-07
4176       7.3098e-07
4184       7.17847e-07
4192       6.80713e-07
4200       6.72132e-07
4208       6.66117e-07
4216       6.31128e-07
4224       6.28913e-07
4232       6.45396e-07
4240       6.2752e-07
4248       6.32624e-07
4256       6.8336e-07
4264       7.23926e-07
4272       7.06739e-07
4280       6.82272e-07
4288       6.95401e-07
4296       7.05642e-07
4304       7.13646e-07
4312       6.84406e-07
4320       6.40036e-07
4328       6.13003e-07
4336       6.35818e-07
4344       6.54803e-07
4352       6.55199e-07
4360       6.5554e-07
4368       6.7692e-07
4376       6.77139e-07
4384       6.71626e-07
4392       6.80782e-07
4400       6.75406e-07
4408       6.5543e-07
4416       6.21733e-07
4424       6.23407e-07
4432       6.39979e-07
4440       6.61057e-07
4448       6.81375e-07
4456       7.53264e-07
4464       7.69137e-07
4472       7.24158e-07
4480       6.74623e-07
4488       6.81577e-07
4496       7.09155e-07
4504       7.31288e-07
4512       7.15352e-07
4520       6.95502e-07
4528       6.80775e-07
4536       6.70445e-07
4544       6.61401e-07
4552       6.75047e-07
4560       7.03753e-07
4568       7.13643e-07
4576       6.89549e-07
4584       6.67598e-07
4592       6.76113e-07
4600       6.96252e-07
4608       7.01066e-07
4616       7.01337e-07
4624       6.48699e-07
4632       6.1506e-07
4640       6.55705e-07
4648       7.12672e-07
4656       7.3114e-07
4664       7.13239e-07
4672       6.79467e-07
4680       6.56474e-07
4688       6.6179e-07
4696       6.78913e-07
4704       6.87964e-07
4712       6.91447e-07
4720       7.03203e-07
4728       7.03025e-07
4736       7.14651e-07
4744       7.28559e-07
4752       7.07649e-07
4760       6.88187e-07
4768       6.80144e-07
4776       7.00424e-07
4784       7.36565e-07
4792       7.40079e-07
4800       6.96466e-07
4808       6.50688e-07
4816       6.48542e-07
4824       6.47676e-07
4832       6.37689e-07
4840       6.56997e-07
4848       7.06783e-07
4856       7.3374e-07
4864       6.95073e-07
4872       6.55614e-07
4880       6.63199e-07
4888       6.73016e-07
4896       6.8186e-07
4904       6.80283e-07
4912       6.5893e-07
4920       6.47142e-07
4928       6.47261e-07
4936       6.36157e-07
4944       6.61689e-07
4952       6.99467e-07
4960       7.11006e-07
4968       7.13422e-07
4976       6.59367e-07
4984       6.74231e-07
4992       7.70938e-07
5000       8.11565e-07
5008       8.26967e-07
5016       7.59696e-07
5024       7.03754e-07
5032       7.04118e-07
5040       7.08507e-07
5048       6.95301e-07
5056       6.77039e-07
5064       6.7767e-07
5072       6.97733e-07
5080       7.0237e-07
5088       6.94278e-07
5096       6.8768e-07
5104       6.67605e-07
5112       6.7356e-07
5120       7.02915e-07
5128       7.26992e-07
5136       7.06826e-07
5144       6.70445e-07
5152       6.28784e-07
5160       5.9176e-07
5168       5.7519e-07
5176       5.74255e-07
5184       6.05478e-07
5192       6.58143e-07
5200       6.84021e-07
5208       6.7403e-07
5216       6.88117e-07
5224       6.9949e-07
5232       6.82193e-07
5240       6.48346e-07
5248       6.38325e-07
5256       6.63632e-07
5264       6.85835e-07
5272       7.04509e-07
5280       7.12821e-07
5288       7.15739e-07
5296       7.12248e-07
5304       6.92001e-07
5312       6.86859e-07
5320       7.02926e-07
5328       7.10102e-07
5336       7.00672e-07
5344       6.91545e-07
5352       6.80166e-07
5360       6.84931e-07
5368       6.77744e-07
5376       6.7391e-07
5384       6.90998e-07
5392       7.1865e-07
5400       7.58281e-07
5408       7.52545e-07
5416       6.87164e-07
5424       6.23557e-07
5432       6.24017e-07
5440       6.35574e-07
5448       6.60765e-07
5456       7.19377e-07
5464       7.46757e-07
5472       7.18256e-07
5480       6.95789e-07
5488       6.87651e-07
5496       6.85428e-07
5504       6.63644e-07
5512       6.53512e-07
5520       6.3286e-07
5528       6.25866e-07
5536       6.60183e-07
5544       6.8532e-07
5552       6.63745e-07
5560       6.5298e-07
5568       6.8544e-07
5576       7.18882e-07
5584       7.33672e-07
5592       7.34685e-07
5600       7.44571e-07
5608       7.31259e-07
5616       6.81629e-07
5624       6.69048e-07
5632       6.67579e-07
5640       6.5471e-07
5648       6.24112e-07
5656       5.91916e-07
5664       6.01051e-07
5672       6.17776e-07
5680       6.33391e-07
5688       6.58965e-07
5696       6.85997e-07
5704       7.02809e-07
5712       7.00678e-07
5720       6.84199e-07
5728       6.57522e-07
5736       6.38642e-07
5744       6.44368e-07
5752       6.57199e-07
5760       6.5544e-07
5768       6.5188e-07
5776       6.3764e-07
5784       6.46524e-07
5792       6.79828e-07
5800       7.02378e-07
5808       6.82912e-07
5816       6.44485e-07
5824       6.37579e-07
5832       6.31303e-07
5840       6.42285e-07
5848       6.66701e-07
5856       6.56401e-07
5864       6.29398e-07
5872       6.51303e-07
5880       6.68324e-07
5888       6.69516e-07
5896       6.83255e-07
5904       6.7815e-07
5912       6.82036e-07
5920       6.87013e-07
5928       6.45844e-07
5936       6.40797e-07
5944       6.95017e-07
5952       7.31621e-07
5960       7.25347e-07
5968       7.02563e-07
5976       6.92222e-07
5984       6.79586e-07
5992       6.68642e-07
6000       6.83753e-07
6008       6.86148e-07
6016       6.9252e-07
6024       7.0482e-07
6032       6.79796e-07
6040       6.32758e-07
6048       6.17858e-07
6056       6.41472e-07
6064       6.75588e-07
6072       6.78177e-07
6080       6.76689e-07
6088       6.83619e-07
6096       6.6945e-07
6104       6.61356e-07
6112       6.65811e-07
6120       6.63861e-07
6128       6.69429e-07
6136       6.62189e-07
6144       6.6803e-07
6152       6.67985e-07
6160       6.82283e-07
6168       6.75381e-07
6176       6.55181e-07
6184       6.56807e-07
6192       6.59603e-07
6200       6.81992e-07
6208       6.80353e-07
6216       6.58465e-07
6224       6.23956e-07
6232       6.23169e-07
6240       6.47005e-07
6248       6.66106e-07
6256       6.77156e-07
6264       6.75757e-07
6272       6.76282e-07
6280       6.61422e-07
6288       6.72209e-07
6296       6.94763e-07
6304       6.94072e-07
6312       6.67831e-07
6320       6.55417e-07
6328       6.69148e-07
6336       6.726e-07 
6344       6.77913e-07
6352       7.26657e-07
6360       7.48751e-07
6368       7.32505e-07
6376       7.22684e-07
6384       7.53127e-07
6392       7.77671e-07
6400       7.68664e-07
6408       7.29717e-07
6416       6.91561e-07
6424       7.02001e-07
6432       7.11067e-07
6440       7.0949e-07
6448       7.24995e-07
6456       7.18075e-07
6464       6.78503e-07
6472       6.81236e-07
6480       6.86242e-07
6488       6.79022e-07
6496       6.56227e-07
6504       6.105e-07 
6512       5.81869e-07
6520       5.72754e-07
6528       5.99759e-07
6536       6.63144e-07
6544       7.02958e-07
6552       7.31519e-07
6560       7.4272e-07
6568       7.18246e-07
6576       7.25099e-07
6584       7.3961e-07
6592       7.1284e-07
6600       6.86895e-07
6608       6.74614e-07
6616       6.78955e-07
6624       7.29154e-07
6632       7.91818e-07
6640       7.87312e-07
6648       7.33009e-07
6656       6.83889e-07
6664       6.63431e-07
6672       6.69539e-07
6680       6.82458e-07
6688       6.70191e-07
6696       6.75282e-07
6704       7.06535e-07
6712       7.22126e-07
6720       7.11412e-07
6728       6.81756e-07
6736       6.49813e-07
6744       6.38478e-07
6752       6.50091e-07
6760       6.4353e-07
6768       6.51905e-07
6776       6.74331e-07
6784       7.04086e-07
6792       6.98216e-07
6800       6.96072e-07
6808       7.05852e-07
6816       7.22703e-07
6824       7.33797e-07
6832       7.04822e-07
6840       7.17854e-07
6848       7.62265e-07
6856       7.46278e-07
6864       7.02324e-07
6872       6.86479e-07
6880       6.84008e-07
6888       6.77346e-07
6896       6.8982e-07
6904       7.14311e-07
6912       7.52235e-07
6920       7.42778e-07
6928       6.91425e-07
6936       6.67351e-07
6944       6.78016e-07
6952       6.69646e-07
6960       6.35243e-07
6968       6.38355e-07
6976       6.71903e-07
