# Freq.    Mag.
0          8.8896e-05
1          9.48759e-05
2          9.66451e-05
3          8.99035e-05
4          8.08137e-05
5          7.26278e-05
6          6.83099e-05
7          6.48161e-05
8          6.12466e-05
9          5.73602e-05
10         5.22912e-05
11         4.9032e-05
12         4.69989e-05
13         4.44512e-05
14         4.2706e-05
15         4.22872e-05
16         4.27637e-05
17         4.23624e-05
18         4.00761e-05
19         3.8059e-05
20         3.72116e-05
21         3.69233e-05
22         3.64808e-05
23         3.56272e-05
24         3.51805e-05
25         3.45252e-05
26         3.40927e-05
27         3.31047e-05
28         3.06597e-05
29         2.81138e-05
30         2.65917e-05
31         2.61833e-05
32         2.73976e-05
33         2.81417e-05
34         2.74948e-05
35         2.5879e-05
36         2.40123e-05
37         2.97401e-05
38         4.44006e-05
39         4.93404e-05
40         4.95931e-05
41         4.26877e-05
42         2.61186e-05
43         1.9625e-05
44         1.908e-05 
45         1.78827e-05
46         1.72224e-05
47         1.74269e-05
48         1.72845e-05
49         1.64149e-05
50         1.47207e-05
51         1.35101e-05
52         1.31687e-05
53         1.38278e-05
54         1.48941e-05
55         1.52435e-05
56         1.49282e-05
57         1.45084e-05
58         1.47654e-05
59         1.52865e-05
60         1.52848e-05
61         1.51168e-05
62         1.48829e-05
63         1.49889e-05
64         1.52687e-05
65         1.5793e-05
66         1.59936e-05
67         1.5857e-05
68         1.52452e-05
69         1.48395e-05
70         1.47242e-05
71         1.44347e-05
72         1.39362e-05
73         1.35611e-05
74         1.37475e-05
75         1.43666e-05
76         1.47687e-05
77         1.48301e-05
78         1.48058e-05
79         1.4546e-05
80         1.38734e-05
81         1.32356e-05
82         1.26811e-05
83         1.22241e-05
84         1.20641e-05
85         1.17751e-05
86         1.12201e-05
87         1.03908e-05
88         9.02978e-06
89         8.18675e-06
90         8.53093e-06
91         8.88229e-06
92         9.15259e-06
93         9.31873e-06
94         9.64591e-06
95         1.01976e-05
96         1.04208e-05
97         1.01824e-05
98         9.91074e-06
99         9.3828e-06
100        8.42025e-06
101        7.90115e-06
102        7.84163e-06
103        7.90098e-06
104        7.85264e-06
105        7.66012e-06
106        7.90913e-06
107        8.21333e-06
108        8.39495e-06
109        8.54254e-06
110        8.27171e-06
111        8.08846e-06
112        7.90368e-06
113        7.98321e-06
114        8.58394e-06
115        9.24306e-06
116        1.21145e-05
117        1.59304e-05
118        1.63848e-05
119        1.60026e-05
120        1.32009e-05
121        1.02222e-05
122        9.71001e-06
123        9.18806e-06
124        8.88329e-06
125        8.57311e-06
126        8.33153e-06
127        8.27048e-06
128        8.62536e-06
129        8.82122e-06
130        8.61498e-06
131        8.41857e-06
132        7.96857e-06
133        7.29713e-06
134        6.74403e-06
135        6.48898e-06
136        6.52753e-06
137        6.42422e-06
138        6.4054e-06
139        6.49309e-06
140        6.56436e-06
141        6.53207e-06
142        6.25959e-06
143        6.31599e-06
144        6.49802e-06
145        6.47698e-06
146        6.51766e-06
147        6.36861e-06
148        5.95839e-06
149        5.8502e-06
150        5.88765e-06
151        5.8973e-06
152        5.96384e-06
153        5.98422e-06
154        5.87753e-06
155        5.67191e-06
156        5.60263e-06
157        5.80047e-06
158        6.085e-06 
159        6.11464e-06
160        5.90135e-06
161        5.77915e-06
162        6.17293e-06
163        6.46234e-06
164        6.42277e-06
165        6.48067e-06
166        6.58456e-06
167        6.55286e-06
168        6.52565e-06
169        6.382e-06 
170        6.27396e-06
171        6.12989e-06
172        5.95094e-06
173        5.77678e-06
174        5.6652e-06
175        5.79078e-06
176        5.944e-06 
177        6.18612e-06
178        7.15303e-06
179        8.31369e-06
180        8.35178e-06
181        8.18334e-06
182        6.98379e-06
183        5.6875e-06
184        5.38189e-06
185        5.13491e-06
186        5.12909e-06
187        5.20875e-06
188        5.20306e-06
189        5.17795e-06
190        4.95435e-06
191        4.70819e-06
192        4.57002e-06
193        4.80163e-06
194        5.36719e-06
195        7.2401e-06
196        9.22575e-06
197        9.30873e-06
198        8.99066e-06
199        7.03169e-06
200        4.86343e-06
201        4.7134e-06
202        4.84464e-06
203        4.78838e-06
204        4.67157e-06
205        4.54513e-06
206        4.61674e-06
207        4.85518e-06
208        4.94224e-06
209        4.8582e-06
210        4.85883e-06
211        5.05699e-06
212        5.24885e-06
213        5.17168e-06
214        5.10328e-06
215        5.2681e-06
216        5.42578e-06
217        5.48724e-06
218        5.48748e-06
219        5.43995e-06
220        5.39172e-06
221        5.47298e-06
222        5.58955e-06
223        5.40187e-06
224        5.03877e-06
225        4.67391e-06
226        4.42372e-06
227        4.52647e-06
228        4.69533e-06
229        4.57499e-06
230        4.3482e-06
231        4.13143e-06
232        4.12923e-06
233        4.36401e-06
234        4.49726e-06
235        4.45611e-06
236        4.30261e-06
237        4.2938e-06
238        4.87468e-06
239        5.62777e-06
240        5.74119e-06
241        5.87614e-06
242        5.13858e-06
243        4.2219e-06
244        3.94801e-06
245        3.82599e-06
246        3.82471e-06
247        3.75148e-06
248        3.5783e-06
249        3.49242e-06
250        3.36199e-06
251        3.17632e-06
252        3.13807e-06
253        3.30925e-06
254        3.55081e-06
255        3.64859e-06
256        3.53372e-06
257        3.52289e-06
258        3.70233e-06
259        3.78151e-06
260        3.78751e-06
261        3.99866e-06
262        4.12409e-06
263        4.20525e-06
264        4.33086e-06
265        4.43035e-06
266        4.60955e-06
267        4.66195e-06
268        4.50113e-06
269        4.28133e-06
270        4.14283e-06
271        4.01272e-06
272        4.0075e-06
273        4.3495e-06
274        5.80136e-06
275        6.98619e-06
276        6.95118e-06
277        6.57545e-06
278        5.03868e-06
279        4.01456e-06
280        3.99712e-06
281        3.96241e-06
282        3.93264e-06
283        3.81537e-06
284        3.74185e-06
285        3.61782e-06
286        3.4783e-06
287        3.56041e-06
288        3.68825e-06
289        3.58187e-06
290        3.36562e-06
291        3.23909e-06
292        3.29235e-06
293        3.31662e-06
294        3.22585e-06
295        3.18558e-06
296        3.10858e-06
297        3.16665e-06
298        3.78689e-06
299        4.64281e-06
300        4.80282e-06
301        4.78839e-06
302        4.17393e-06
303        3.53375e-06
304        3.51975e-06
305        3.3586e-06
306        3.13794e-06
307        3.07709e-06
308        3.04546e-06
309        3.1306e-06
310        3.37107e-06
311        3.63325e-06
312        3.86444e-06
313        3.90273e-06
314        3.71807e-06
315        3.44601e-06
316        3.23482e-06
317        3.25108e-06
318        3.64218e-06
319        4.01606e-06
320        4.01902e-06
321        3.79924e-06
322        3.60683e-06
323        3.38039e-06
324        3.28387e-06
325        3.3624e-06
326        3.33607e-06
327        3.34901e-06
328        3.33119e-06
329        3.33422e-06
330        3.36913e-06
331        3.45286e-06
332        3.42835e-06
333        3.24016e-06
334        3.13535e-06
335        2.93871e-06
336        2.80081e-06
337        2.75943e-06
338        2.85388e-06
339        2.97496e-06
340        2.99954e-06
341        2.85084e-06
342        2.72266e-06
343        2.75008e-06
344        2.79908e-06
345        2.78003e-06
346        2.69015e-06
347        2.6405e-06
348        2.6795e-06
349        2.7227e-06
350        2.82448e-06
351        2.93818e-06
352        3.32522e-06
353        4.83243e-06
354        5.74473e-06
355        5.68451e-06
356        5.23945e-06
357        3.83477e-06
358        3.98738e-06
359        5.07693e-06
360        5.24122e-06
361        5.30052e-06
362        4.53545e-06
363        3.54947e-06
364        3.1804e-06
365        2.96855e-06
366        2.99505e-06
367        3.14482e-06
368        3.28968e-06
369        3.2536e-06
370        3.14485e-06
371        3.1858e-06
372        3.26631e-06
373        3.31187e-06
374        3.32064e-06
375        3.24432e-06
376        3.17702e-06
377        3.18791e-06
378        3.32416e-06
379        3.44616e-06
380        3.40645e-06
381        3.26443e-06
382        3.03011e-06
383        2.88037e-06
384        2.76229e-06
385        2.67823e-06
386        2.62558e-06
387        2.76087e-06
388        2.88929e-06
389        2.90149e-06
390        2.8174e-06
391        2.68531e-06
392        2.58937e-06
393        2.56473e-06
394        2.6101e-06
395        2.67887e-06
396        2.64394e-06
397        2.56721e-06
398        2.46334e-06
399        2.38098e-06
400        2.39391e-06
401        2.55173e-06
402        2.67418e-06
403        2.69438e-06
404        2.64244e-06
405        2.54689e-06
406        2.52005e-06
407        2.53435e-06
408        2.53698e-06
409        2.55828e-06
410        2.61024e-06
411        2.67368e-06
412        2.71691e-06
413        2.73488e-06
414        2.75497e-06
415        2.76202e-06
416        2.80655e-06
417        3.04175e-06
418        4.06424e-06
419        5.11273e-06
420        5.2479e-06
421        5.14886e-06
422        4.27877e-06
423        3.24219e-06
424        2.97327e-06
425        2.94846e-06
426        3.01116e-06
427        2.91577e-06
428        2.79779e-06
429        2.81991e-06
430        2.84008e-06
431        3.1246e-06
432        4.07397e-06
433        4.51944e-06
434        4.53772e-06
435        4.19547e-06
436        3.01237e-06
437        2.42939e-06
438        2.29727e-06
439        2.23014e-06
440        2.3829e-06
441        2.50521e-06
442        2.45977e-06
443        2.23094e-06
444        1.9556e-06
445        1.91419e-06
446        2.03854e-06
447        2.18077e-06
448        2.33595e-06
449        2.44996e-06
450        2.39903e-06
451        2.26524e-06
452        2.20677e-06
453        2.27084e-06
454        2.24499e-06
455        2.17169e-06
456        2.23078e-06
457        2.31446e-06
458        2.3202e-06
459        2.28036e-06
460        2.29632e-06
461        2.40518e-06
462        2.48375e-06
463        2.42228e-06
464        2.38404e-06
465        2.39673e-06
466        2.40372e-06
467        2.45835e-06
468        2.47835e-06
469        2.48467e-06
470        2.53266e-06
471        2.55224e-06
472        2.68839e-06
473        2.76606e-06
474        2.66312e-06
475        2.45149e-06
476        2.29693e-06
477        2.43145e-06
478        3.39302e-06
479        4.39822e-06
480        4.49104e-06
481        4.30627e-06
482        3.41768e-06
483        2.29741e-06
484        2.16089e-06
485        2.21132e-06
486        2.13132e-06
487        2.03198e-06
488        1.99222e-06
489        2.05242e-06
490        2.08529e-06
491        2.06818e-06
492        1.92143e-06
493        1.78458e-06
494        1.79961e-06
495        1.95546e-06
496        2.07198e-06
497        2.10106e-06
498        2.15222e-06
499        2.17526e-06
500        2.22546e-06
501        2.31136e-06
502        2.29214e-06
503        2.18349e-06
504        2.09022e-06
505        2.0207e-06
506        2.08632e-06
507        2.20795e-06
508        2.26403e-06
509        2.38147e-06
510        2.83491e-06
511        3.63999e-06
512        3.75523e-06
513        3.64813e-06
514        3.20309e-06
515        2.38393e-06
516        2.22518e-06
517        2.2266e-06
518        2.21822e-06
519        2.25561e-06
520        2.30115e-06
521        2.26859e-06
522        2.23825e-06
523        2.28843e-06
524        2.43229e-06
525        2.6933e-06
526        3.1566e-06
527        3.35281e-06
528        3.29322e-06
529        3.08948e-06
530        2.51742e-06
531        2.23207e-06
532        2.32323e-06
533        2.41171e-06
534        2.39989e-06
535        2.31923e-06
536        2.24754e-06
537        2.36061e-06
538        3.04035e-06
539        3.76352e-06
540        3.84228e-06
541        3.86471e-06
542        3.31384e-06
543        2.48241e-06
544        2.22451e-06
545        2.12283e-06
546        1.95311e-06
547        1.89777e-06
548        1.94146e-06
549        2.05725e-06
550        2.16569e-06
551        2.17977e-06
552        2.23047e-06
553        2.24259e-06
554        2.18481e-06
555        2.09952e-06
556        2.01435e-06
557        1.92297e-06
558        1.83794e-06
559        1.86864e-06
560        1.967e-06 
561        2.01928e-06
562        2.05424e-06
563        2.08934e-06
564        2.18122e-06
565        2.33898e-06
566        2.38725e-06
567        2.34762e-06
568        2.2085e-06
569        2.03014e-06
570        2.00623e-06
571        2.06269e-06
572        2.15491e-06
573        2.19378e-06
574        2.15716e-06
575        2.10627e-06
576        2.02048e-06
577        2.00943e-06
578        2.0351e-06
579        2.12422e-06
580        2.2051e-06
581        2.23125e-06
582        2.21431e-06
583        2.1474e-06
584        2.01981e-06
585        1.94656e-06
586        1.92594e-06
587        1.93348e-06
588        1.8738e-06
589        2.17728e-06
590        2.87797e-06
591        3.02161e-06
592        3.00712e-06
593        2.70783e-06
594        2.2138e-06
595        2.10662e-06
596        2.03325e-06
597        1.96536e-06
598        2.44534e-06
599        3.10231e-06
600        3.2289e-06
601        3.1478e-06
602        2.62919e-06
603        2.05723e-06
604        1.89993e-06
605        1.86131e-06
606        1.82662e-06
607        1.85018e-06
608        1.93645e-06
609        1.99549e-06
610        2.00966e-06
611        2.03485e-06
612        2.02249e-06
613        1.90541e-06
614        1.86304e-06
615        1.88919e-06
616        2.00549e-06
617        2.19509e-06
618        2.28997e-06
619        2.29757e-06
620        2.29007e-06
621        2.2907e-06
622        2.2828e-06
623        2.22059e-06
624        2.14182e-06
625        2.14961e-06
626        2.24839e-06
627        2.32489e-06
628        2.27413e-06
629        2.20277e-06
630        2.12529e-06
631        2.09313e-06
632        2.12175e-06
633        2.02783e-06
634        1.93391e-06
635        1.89109e-06
636        1.86696e-06
637        1.82689e-06
638        1.79634e-06
639        1.81199e-06
640        1.7692e-06
641        1.76744e-06
642        1.76662e-06
643        1.7399e-06
644        1.7489e-06
645        1.81178e-06
646        1.84771e-06
647        1.84304e-06
648        1.86928e-06
649        1.91199e-06
650        1.90906e-06
651        1.84017e-06
652        1.78591e-06
653        1.77272e-06
654        1.80993e-06
655        1.8004e-06
656        1.72824e-06
657        1.78711e-06
658        2.21543e-06
659        2.74719e-06
660        2.81189e-06
661        2.77495e-06
662        2.5058e-06
663        2.06724e-06
664        1.93232e-06
665        1.88737e-06
666        1.78774e-06
667        1.77505e-06
668        2.1121e-06
669        2.55396e-06
670        2.65085e-06
671        2.62524e-06
672        2.35164e-06
673        2.06469e-06
674        1.97094e-06
675        1.94601e-06
676        1.93701e-06
677        1.93852e-06
678        1.89188e-06
679        1.82393e-06
680        1.80342e-06
681        1.75614e-06
682        1.69488e-06
683        1.67852e-06
684        1.78985e-06
685        1.86492e-06
686        1.79105e-06
687        1.70053e-06
688        1.66777e-06
689        1.68533e-06
690        1.68116e-06
691        1.65237e-06
692        1.61495e-06
693        1.67268e-06
694        1.63297e-06
695        1.5169e-06
696        1.4804e-06
697        1.48363e-06
698        1.58379e-06
699        1.64662e-06
700        1.66951e-06
701        1.73203e-06
702        1.7642e-06
703        1.71471e-06
704        1.6084e-06
705        1.54697e-06
706        1.64471e-06
707        1.83471e-06
708        2.0234e-06
709        2.07905e-06
710        2.02688e-06
711        1.96361e-06
712        1.89352e-06
713        1.83165e-06
714        1.7548e-06
715        1.67781e-06
716        1.70291e-06
717        1.75506e-06
718        1.92157e-06
719        2.35295e-06
720        2.52249e-06
721        2.50228e-06
722        2.24095e-06
723        1.84639e-06
724        1.65261e-06
725        1.62626e-06
726        1.70975e-06
727        1.79616e-06
728        1.85308e-06
729        1.85177e-06
730        1.76873e-06
731        1.68403e-06
732        1.64415e-06
733        1.61865e-06
734        1.6096e-06
735        1.63894e-06
736        1.7161e-06
737        1.71755e-06
738        1.73163e-06
739        1.7169e-06
740        1.66376e-06
741        1.5812e-06
742        1.56458e-06
743        1.59817e-06
744        1.65006e-06
745        1.62582e-06
746        1.53645e-06
747        1.79017e-06
748        2.08e-06  
749        2.09837e-06
750        2.03355e-06
751        1.72073e-06
752        1.53388e-06
753        1.54102e-06
754        1.50245e-06
755        1.49824e-06
756        1.64466e-06
757        1.83486e-06
758        1.92726e-06
759        1.9788e-06
760        1.96969e-06
761        1.91187e-06
762        1.84412e-06
763        1.81832e-06
764        1.85878e-06
765        1.86769e-06
766        1.85513e-06
767        1.82175e-06
768        1.73431e-06
769        1.74083e-06
770        1.76818e-06
771        1.76033e-06
772        1.78477e-06
773        1.86953e-06
774        1.91594e-06
775        1.84571e-06
776        1.75789e-06
777        1.7368e-06
778        1.875e-06 
779        2.18422e-06
780        2.26167e-06
781        2.31627e-06
782        2.19367e-06
783        1.87188e-06
784        1.71039e-06
785        1.60245e-06
786        1.56639e-06
787        1.58045e-06
788        1.57958e-06
789        1.57943e-06
790        1.62898e-06
791        1.67138e-06
792        1.57736e-06
793        1.40249e-06
794        1.27798e-06
795        1.32605e-06
796        1.43629e-06
797        1.52358e-06
798        1.59071e-06
799        1.6717e-06
800        1.7563e-06
801        1.75814e-06
802        1.66665e-06
803        1.55043e-06
804        1.49995e-06
805        1.45498e-06
806        1.46316e-06
807        1.60871e-06
808        1.73123e-06
809        1.70609e-06
810        1.6243e-06
811        1.61074e-06
812        1.62016e-06
813        1.69351e-06
814        1.77305e-06
815        1.83958e-06
816        1.83622e-06
817        1.73097e-06
818        1.67773e-06
819        1.67403e-06
820        1.67393e-06
821        1.75274e-06
822        1.8575e-06
823        1.97008e-06
824        2.01091e-06
825        1.95254e-06
826        2.02532e-06
827        2.06348e-06
828        2.00914e-06
829        1.99479e-06
830        1.78714e-06
831        1.69324e-06
832        1.68623e-06
833        1.66303e-06
834        1.66074e-06
835        1.71065e-06
836        1.69042e-06
837        1.5998e-06
838        1.68931e-06
839        1.91768e-06
840        2.06709e-06
841        2.05901e-06
842        1.72786e-06
843        1.35692e-06
844        1.24633e-06
845        1.21448e-06
846        1.24612e-06
847        1.30986e-06
848        1.39559e-06
849        1.47632e-06
850        1.5187e-06
851        1.58172e-06
852        1.65491e-06
853        1.67925e-06
854        1.63472e-06
855        1.55461e-06
856        1.4954e-06
857        1.44636e-06
858        1.46555e-06
859        1.53462e-06
860        1.57911e-06
861        1.57963e-06
862        1.52607e-06
863        1.5505e-06
864        1.63385e-06
865        1.79639e-06
866        1.86313e-06
867        1.80212e-06
868        1.73206e-06
869        1.67682e-06
870        1.65051e-06
871        1.6148e-06
