# Freq.    Re    Im
0.999987   0.540384   0.010971  
1.01448    0.540856   0.0111886 
1.02919    0.541328   0.0114064 
1.04411    0.541801   0.0116247 
1.05924    0.542274   0.0118433 
1.07459    0.542747   0.0120623 
1.09017    0.542347   0.0124607 
1.10597    0.541947   0.0128585 
1.122      0.541547   0.0132558 
1.13827    0.541147   0.0136524 
1.15477    0.540747   0.0140484 
1.17151    0.540692   0.0143961 
1.18849    0.540637   0.0147437 
1.20571    0.540582   0.0150912 
1.22319    0.540526   0.0154387 
1.24092    0.54047    0.0157861 
1.25891    0.54045    0.0161355 
1.27716    0.54043    0.0164848 
1.29567    0.540408   0.0168342 
1.31445    0.540388   0.0171835 
1.3335     0.540366   0.0175328 
1.35283    0.540305   0.0179078 
1.37244    0.540244   0.0182828 
1.39234    0.540182   0.0186577 
1.41252    0.54012    0.0190325 
1.43299    0.540057   0.0194073 
1.45377    0.540048   0.0198067 
1.47484    0.540037   0.020206  
1.49622    0.540027   0.0206055 
1.5179     0.540016   0.0210048 
1.53991    0.540005   0.0214042 
1.56223    0.539989   0.0218606 
1.58487    0.539973   0.022317  
1.60785    0.539957   0.0227734 
1.63115    0.53994    0.0232298 
1.6548     0.539923   0.0236861 
1.67878    0.539917   0.0240906 
1.70312    0.53991    0.0244951 
1.7278     0.539902   0.0248997 
1.75285    0.539895   0.0253042 
1.77826    0.539887   0.0257087 
1.80403    0.539867   0.0261957 
1.83018    0.539847   0.0266827 
1.85671    0.539826   0.0271696 
1.88362    0.539805   0.0276566 
1.91093    0.539784   0.0281435 
1.93863    0.539732   0.0286815 
1.96673    0.539679   0.0292194 
1.99524    0.539626   0.0297573 
2.02416    0.539572   0.030295  
2.0535     0.539518   0.0308327 
2.08326    0.539532   0.0313271 
2.11346    0.539545   0.0318216 
2.1441     0.539558   0.0323162 
2.17518    0.53957    0.0328108 
2.20671    0.539582   0.0333054 
2.23869    0.539559   0.0339041 
2.27114    0.539536   0.0345027 
2.30406    0.539512   0.0351014 
2.33746    0.539487   0.0357    
2.37134    0.539462   0.0362987 
2.40572    0.539432   0.036913  
2.44059    0.539402   0.0375273 
2.47596    0.539371   0.0381416 
2.51185    0.539339   0.0387558 
2.54826    0.539307   0.0393701 
2.5852     0.539304   0.040002  
2.62267    0.5393     0.040634  
2.66069    0.539295   0.041266  
2.69926    0.53929    0.041898  
2.73838    0.539284   0.0425301 
2.77808    0.539309   0.0432614 
2.81835    0.539333   0.0439929 
2.8592     0.539356   0.0447245 
2.90064    0.539379   0.0454562 
2.94269    0.5394     0.0461882 
2.98534    0.539416   0.0468488 
3.02862    0.539432   0.0475095 
3.07252    0.539447   0.0481703 
3.11705    0.539461   0.0488312 
3.16224    0.539474   0.0494923 
3.20807    0.539481   0.0502975 
3.25458    0.539485   0.0511028 
3.30175    0.539489   0.0519083 
3.34961    0.539492   0.0527139 
3.39816    0.539494   0.0535196 
3.44742    0.539469   0.054369  
3.49739    0.539442   0.0552183 
3.54809    0.539414   0.0560678 
3.59952    0.539385   0.0569173 
3.65169    0.539355   0.0577668 
3.70463    0.53934    0.0587783 
3.75833    0.539323   0.0597899 
3.8128     0.539305   0.0608016 
3.86807    0.539285   0.0618134 
3.92414    0.539262   0.0628254 
3.98102    0.53923    0.0637096 
4.03873    0.539197   0.0645939 
4.09727    0.539162   0.0654783 
4.15666    0.539126   0.0663627 
4.21691    0.539089   0.0672472 
4.27804    0.539131   0.0683849 
4.34005    0.539171   0.0695231 
4.40296    0.539208   0.0706618 
4.46678    0.539243   0.0718009 
4.53153    0.539275   0.0729405 
4.59721    0.539238   0.0739732 
4.66385    0.539199   0.0750059 
4.73145    0.539158   0.0760387 
4.80004    0.539115   0.0770717 
4.86961    0.53907    0.0781048 
4.9402     0.539381   0.0791132 
5.01181    0.539691   0.0801229 
5.08446    0.54       0.0811341 
5.15816    0.540307   0.0821466 
5.23292    0.540612   0.0831605 
5.30878    0.540315   0.0846124 
5.38573    0.540013   0.0860632 
5.4638     0.539707   0.0875131 
5.54299    0.539398   0.0889619 
5.62334    0.539085   0.0904097 
5.70485    0.539124   0.0917924 
5.78755    0.53916    0.0931758 
5.87144    0.539192   0.0945601 
5.95654    0.539221   0.095945  
6.04289    0.539246   0.0973308 
6.13048    0.539205   0.0987694 
6.21934    0.53916    0.100208  
6.30949    0.539111   0.101648  
6.40095    0.539058   0.103088  
6.49373    0.539001   0.104528  
6.58786    0.539007   0.106168  
6.68335    0.539008   0.107808  
6.78023    0.539005   0.10945   
6.87851    0.538996   0.111092  
6.97822    0.538983   0.112736  
7.07937    0.539048   0.114351  
7.18198    0.539108   0.115968  
7.28609    0.539163   0.117587  
7.3917     0.539214   0.119206  
7.49885    0.539261   0.120827  
7.60754    0.539247   0.122848  
7.71782    0.539226   0.124871  
7.82969    0.539198   0.126895  
7.94318    0.539163   0.128921  
8.05832    0.53912    0.130948  
8.17513    0.539192   0.13275   
8.29363    0.539258   0.134554  
8.41384    0.539318   0.136359  
8.5358     0.539373   0.138167  
8.65953    0.539422   0.139976  
8.78505    0.539451   0.142074  
8.91239    0.539472   0.144173  
9.04158    0.539486   0.146275  
9.17264    0.539491   0.148379  
9.3056     0.53949    0.150485  
9.44049    0.539558   0.152675  
9.57733    0.539619   0.154868  
9.71615    0.539671   0.157063  
9.85699    0.539715   0.159262  
9.99987    0.539751   0.161463  
10.1448    0.539731   0.163942  
10.2919    0.539701   0.166424  
10.4411    0.539659   0.16891   
10.5924    0.539608   0.171398  
10.7459    0.539545   0.173889  
10.9017    0.539559   0.176372  
11.0597    0.539562   0.17886   
11.22      0.539555   0.18135   
11.3827    0.539538   0.183844  
11.5477    0.53951    0.186341  
11.7151    0.539515   0.189458  
11.8849    0.539505   0.192581  
12.0571    0.539478   0.195709  
12.2319    0.539435   0.198843  
12.4092    0.539376   0.201982  
12.5891    0.539455   0.204705  
12.7716    0.539523   0.207434  
12.9567    0.539578   0.210168  
13.1445    0.539621   0.212907  
13.335     0.539653   0.215651  
13.5283    0.539697   0.218832  
13.7244    0.539725   0.222021  
13.9234    0.539736   0.225216  
14.1252    0.539732   0.228418  
14.3299    0.539711   0.231627  
14.5377    0.5398     0.235053  
14.7484    0.539871   0.238489  
14.9622    0.539923   0.241933  
15.179     0.539958   0.245386  
15.3991    0.539974   0.248847  
15.6223    0.540057   0.25253   
15.8487    0.540119   0.256224  
16.0785    0.540161   0.259928  
16.3115    0.540183   0.263642  
16.548     0.540183   0.267367  
16.7878    0.540364   0.271434  
17.0312    0.540522   0.275516  
17.278     0.540656   0.279612  
17.5285    0.540766   0.283722  
17.7826    0.540852   0.287845  
18.0403    0.540866   0.291878  
18.3018    0.540856   0.295923  
18.5671    0.540822   0.29998   
18.8362    0.540765   0.304051  
19.1093    0.540684   0.308133  
19.3863    0.540643   0.312764  
19.6673    0.540573   0.317411  
19.9524    0.540472   0.322075  
20.2416    0.54034    0.326755  
20.535     0.540177   0.331452  
20.8326    0.540285   0.336322  
21.1346    0.540362   0.341213  
21.441     0.540408   0.346125  
21.7518    0.540422   0.351058  
22.0671    0.540405   0.356011  
22.3869    0.54055    0.361393  
22.7114    0.54066    0.366802  
23.0406    0.540733   0.372238  
23.3746    0.54077    0.3777    
23.7134    0.540769   0.383188  
24.0572    0.540809   0.388727  
24.4059    0.54081    0.394293  
24.7596    0.540775   0.399887  
25.1185    0.540701   0.405507  
25.4826    0.540588   0.411155  
25.852     0.540727   0.41723   
26.2267    0.540824   0.423339  
26.6069    0.540878   0.429484  
26.9926    0.54089    0.435663  
27.3838    0.540859   0.441876  
27.7808    0.540952   0.448322  
28.1835    0.541001   0.454807  
28.592     0.541004   0.46133   
29.0064    0.540961   0.467892  
29.4269    0.540871   0.474493  
29.8534    0.540975   0.481445  
30.2862    0.541029   0.488442  
30.7252    0.541034   0.495485  
31.1705    0.540988   0.502573  
31.6224    0.540891   0.509707  
32.0807    0.541017   0.517177  
32.5458    0.54109    0.524699  
33.0175    0.541109   0.532275  
33.4961    0.541073   0.539904  
33.9816    0.540983   0.547586  
34.4742    0.541204   0.556156  
34.9739    0.541363   0.564796  
35.4809    0.541457   0.573507  
35.9952    0.541485   0.58229   
36.5169    0.541446   0.591145  
37.0463    0.541446   0.599404  
37.5833    0.541389   0.607726  
38.128     0.541273   0.616111  
38.6807    0.541098   0.624559  
39.2414    0.540862   0.633069  
39.8102    0.541075   0.642162  
40.3873    0.541226   0.651334  
40.9727    0.541314   0.660584  
41.5666    0.541341   0.669913  
42.1691    0.541302   0.679321  
42.7804    0.541539   0.689327  
43.4005    0.541709   0.699427  
44.0296    0.54181    0.70962   
44.6678    0.541841   0.719908  
45.3153    0.5418     0.730291  
45.9721    0.54195    0.741095  
46.6385    0.542026   0.752005  
47.3145    0.542027   0.76302   
48.0004    0.541951   0.774142  
48.6961    0.541798   0.78537   
49.402     0.54032    0.797816  
50.1181    0.53872    0.810372  
50.8446    0.536995   0.823038  
51.5816    0.535143   0.835813  
52.3292    0.533161   0.848699  
53.0878    0.53397    0.858931  
53.8573    0.534737   0.869259  
54.638     0.535462   0.879684  
55.4299    0.536145   0.890207  
56.2334    0.536783   0.90083   
57.0485    0.537791   0.914826  
57.8755    0.538726   0.928997  
58.7144    0.539587   0.943342  
59.5654    0.540372   0.957865  
60.4289    0.54108    0.972565  
61.3048    0.541165   0.986186  
62.1934    0.541171   0.999953  
63.0949    0.541097   1.01387   
64.0095    0.540939   1.02793   
64.9373    0.540697   1.04215   
65.8786    0.540767   1.0578    
66.8335    0.540743   1.07363   
67.8023    0.540621   1.08965   
68.7851    0.540401   1.10587   
69.7822    0.54008    1.12227   
70.7937    0.540261   1.13862   
71.8198    0.540353   1.15516   
72.8609    0.540354   1.1719    
73.917     0.540262   1.18884   
74.9885    0.540075   1.20599   
76.0754    0.540317   1.2234    
77.1782    0.540471   1.24103   
78.2969    0.540535   1.25887   
79.4318    0.540507   1.27693   
80.5832    0.540384   1.2952    
81.7513    0.540371   1.31397   
82.9363    0.540261   1.33298   
84.1384    0.540052   1.35221   
85.358     0.539741   1.37169   
86.5953    0.539326   1.3914    
87.8505    0.53975    1.41195   
89.1239    0.540084   1.43277   
90.4158    0.540323   1.45386   
91.7264    0.540466   1.47523   
93.056     0.54051    1.49687   
94.4049    0.540796   1.51855   
95.7733    0.540988   1.54051   
97.1615    0.541086   1.56275   
98.5699    0.541085   1.58528   
99.9987    0.540984   1.6081    
101.448    0.541141   1.63128   
102.919    0.541201   1.65476   
104.411    0.541162   1.67855   
105.924    0.54102    1.70265   
107.459    0.540774   1.72706   
109.017    0.541075   1.75249   
110.597    0.541277   1.77827   
112.2      0.541377   1.80439   
113.827    0.541373   1.83087   
115.477    0.541262   1.85771   
117.151    0.541598   1.88495   
118.849    0.541836   1.91257   
120.571    0.541972   1.94056   
122.319    0.542005   1.96893   
124.092    0.541931   1.99769   
125.891    0.541801   2.0268    
127.716    0.541561   2.0563    
129.567    0.541207   2.0862    
131.445    0.540736   2.11651   
133.35     0.540145   2.14723   
135.283    0.540009   2.17772   
137.244    0.539766   2.20861   
139.234    0.539415   2.23992   
141.252    0.538952   2.27164   
143.299    0.538374   2.30379   
145.377    0.538359   2.33789   
147.484    0.538231   2.37247   
149.622    0.537988   2.40754   
151.79     0.537626   2.44309   
153.991    0.537142   2.47915   
156.223    0.537162   2.51549   
158.487    0.537072   2.55234   
160.785    0.536869   2.58971   
163.115    0.536551   2.6276    
165.48     0.536113   2.66602   
167.878    0.536601   2.7031    
170.312    0.537001   2.74068   
172.78     0.537313   2.77876   
175.285    0.537534   2.81736   
177.826    0.53766    2.85648   
180.403    0.537434   2.89888   
183.018    0.537086   2.94189   
185.671    0.536614   2.98551   
188.362    0.536014   3.02975   
191.093    0.535282   3.07463   
193.863    0.535431   3.1208    
196.673    0.535466   3.16765   
199.524    0.535386   3.21518   
202.416    0.535186   3.2634    
205.35     0.534863   3.31233   
208.326    0.535559   3.35928   
211.346    0.53617    3.40689   
214.41     0.536694   3.45516   
217.518    0.537126   3.5041    
220.671    0.537467   3.55371   
223.869    0.535299   3.60379   
227.114    0.532967   3.65455   
230.406    0.530466   3.70599   
233.746    0.527795   3.75813   
237.134    0.524945   3.81098   
240.572    0.526659   3.86882   
244.059    0.528305   3.92752   
247.596    0.529882   3.9871    
251.185    0.531386   4.04758   
254.826    0.532816   4.10896   
258.52     0.533847   4.17017   
262.267    0.534791   4.23227   
266.069    0.535647   4.29529   
269.926    0.536411   4.35923   
273.838    0.537081   4.42412   
277.808    0.53589    4.48714   
281.835    0.534558   4.55103   
285.92     0.533081   4.61582   
290.064    0.531456   4.68152   
294.269    0.529678   4.74813   
298.534    0.528491   4.8185    
302.862    0.527154   4.8899    
307.252    0.525663   4.96234   
311.705    0.524015   5.03583   
316.224    0.522205   5.1104    
320.807    0.52282    5.18511   
325.458    0.523342   5.26091   
330.175    0.523769   5.3378    
334.961    0.524098   5.41581   
339.816    0.524326   5.49495   
344.742    0.530611   5.57418   
349.739    0.536968   5.65455   
354.809    0.543399   5.73608   
359.952    0.549902   5.81878   
365.169    0.556481   5.90268   
370.463    0.54962    5.98733   
375.833    0.542452   6.07317   
381.28     0.534969   6.1602    
386.807    0.527163   6.24844   
392.414    0.519028   6.3379    
398.102    0.51718    6.43198   
403.873    0.515164   6.52744   
409.727    0.512975   6.6243    
415.666    0.510609   6.72259   
421.691    0.50806    6.82232   
427.804    0.510668   6.92443   
434.005    0.51324    7.02806   
440.296    0.515775   7.13324   
446.678    0.518271   7.23999   
453.153    0.520728   7.34834   
459.721    0.52715    7.46083   
466.385    0.533646   7.57505   
473.145    0.540217   7.69101   
480.004    0.546865   7.80875   
486.961    0.553589   7.9283    
494.02     0.546139   8.04275   
501.181    0.53836    8.15882   
508.446    0.530246   8.27654   
515.816    0.521787   8.39592   
523.292    0.512974   8.517     
530.878    0.51098    8.63912   
538.573    0.508825   8.76299   
546.38     0.506503   8.88862   
554.299    0.50401    9.01605   
562.334    0.501344   9.14529   
570.485    0.499323   9.27272   
578.755    0.497149   9.40191   
587.144    0.494818   9.5329    
595.654    0.492327   9.6657    
604.289    0.48967    9.80034   
613.048    0.490138   9.95211   
621.934    0.490504   10.1062   
630.949    0.490764   10.2627   
640.095    0.490914   10.4216   
649.373    0.490951   10.583    
658.786    0.491408   10.737    
668.335    0.491775   10.8933   
678.023    0.492049   11.0518   
687.851    0.492227   11.2126   
697.822    0.492307   11.3758   
707.937    0.490127   11.5446   
718.198    0.487775   11.7159   
728.609    0.485246   11.8898   
739.17     0.482534   12.0663   
749.885    0.479636   12.2453   
760.754    0.478749   12.4154   
771.782    0.477746   12.5879   
782.969    0.476623   12.7628   
794.318    0.475376   12.9401   
805.832    0.474003   13.1198   
817.513    0.46558    13.3241   
829.363    0.45678    13.5315   
841.384    0.447594   13.7421   
853.58     0.438012   13.956    
865.953    0.428023   14.1732   
878.505    0.428249   14.386    
891.239    0.428384   14.602    
904.158    0.428427   14.8211   
917.264    0.428375   15.0436   
930.56     0.428225   15.2694   
944.049    0.43813    15.4895   
957.733    0.448232   15.7127   
971.615    0.458533   15.9391   
985.699    0.469039   16.1688   
999.987    0.479754   16.4018   
1014.48    0.466222   16.6215   
1029.19    0.452242   16.8441   
1044.11    0.437806   17.0697   
1059.24    0.422902   17.2983   
1074.59    0.407518   17.5299   
1090.17    0.390669   17.8042   
1105.97    0.373193   18.0827   
1122       0.355075   18.3656   
1138.27    0.3363     18.6529   
1154.77    0.316853   18.9446   
1171.51    0.314611   19.1923   
1188.49    0.312257   19.4432   
1205.71    0.309787   19.6974   
1223.19    0.3072     19.9549   
1240.92    0.30449    20.2158   
1258.91    0.313171   20.5434   
1277.16    0.322053   20.8762   
1295.67    0.331141   21.2145   
1314.45    0.340439   21.5583   
1333.5     0.349952   21.9077   
1352.83    0.357396   22.2102   
1372.44    0.36498    22.5169   
1392.34    0.372704   22.8278   
1412.52    0.380572   23.1429   
1432.99    0.388587   23.4625   
1453.77    0.355358   23.8048   
1474.84    0.321078   24.152    
1496.22    0.285723   24.5043   
1517.9     0.249269   24.8616   
1539.91    0.211696   25.224    
1562.23    0.217752   25.5699   
1584.87    0.223934   25.9205   
1607.85    0.230245   26.2759   
1631.15    0.236686   26.6362   
1654.8     0.24326    27.0014   
1678.78    0.182225   27.4187   
1703.12    0.119247   27.8424   
1727.8     0.0542795  28.2723   
1752.85    -0.012722  28.7088   
1778.26    -0.0818082 29.1519   
1804.03    -0.051381  29.5347   
1830.18    -0.0201405 29.9226   
1856.71    0.0119292  30.3154   
1883.62    0.0448445  30.7135   
1910.93    0.0786285  31.1167   
1938.63    0.0939123  31.6074   
1966.73    0.109659   32.1058   
1995.24    0.125878   32.6121   
2024.16    0.142582   33.1263   
2053.5     0.159785   33.6487   
2083.26    0.14822    34.1239   
2113.46    0.136297   34.6059   
2144.1     0.124008   35.0946   
2175.18    0.111344   35.5903   
2206.71    0.0983007  36.093    
2238.69    0.0116048  36.6264   
2271.14    -0.0776745 37.1674   
2304.06    -0.169594  37.7163   
2337.46    -0.264212  38.273    
2371.34    -0.361559  38.8377   
2405.72    -0.340072  39.3509   
2440.59    -0.317954  39.8708   
2475.96    -0.295193  40.3975   
2511.85    -0.271774  40.9312   
2548.26    -0.247699  41.472    
2585.2     -0.283891  42.1773   
2622.67    -0.321242  42.8946   
2660.69    -0.359782  43.6241   
2699.26    -0.39954   44.366    
2738.38    -0.44055   45.1204   
2778.08    -0.389679  45.7576   
2818.35    -0.337284  46.4037   
2859.2     -0.283333  47.0588   
2900.64    -0.227792  47.7231   
2942.69    -0.170636  48.3967   
2985.34    -0.274553  48.9584   
3028.62    -0.38086   49.5264   
3072.52    -0.489598  50.1008   
3117.05    -0.600809  50.6816   
3162.24    -0.714522  51.269    
3208.07    -0.766367  52.0426   
3254.58    -0.819614  52.8278   
3301.75    -0.874294  53.6248   
3349.61    -0.930438  54.4339   
3398.16    -0.988097  55.2551   
3447.42    -0.965579  56.2575   
3497.39    -0.941919  57.2781   
3548.09    -0.917083  58.3172   
3599.52    -0.891037  59.3751   
3651.69    -0.863741  60.4521   
3704.63    -1.05848   61.3107   
3758.33    -1.25859   62.181    
3812.8     -1.46417   63.063    
3868.07    -1.67535   63.957    
3924.14    -1.8922    64.8631   
3981.02    -1.83745   65.8255   
4038.73    -1.78065   66.8021   
4097.27    -1.72177   67.7931   
4156.66    -1.66076   68.7987   
4216.91    -1.59756   69.8191   
4278.04    -1.58907   70.7641   
4340.05    -1.58006   71.7219   
4402.96    -1.57051   72.6927   
4466.78    -1.56042   73.6766   
4531.53    -1.54977   74.6737   
4597.21    -1.93477   75.8205   
4663.85    -2.33127   76.9831   
4731.45    -2.73952   78.1619   
4800.04    -3.15977   79.3568   
4869.61    -3.59229   80.5682   
4940.2     -3.76345   81.9186   
5011.81    -3.93934   83.2915   
5084.46    -4.12007   84.6872   
5158.16    -4.30576   86.1062   
5232.92    -4.49655   87.5487   
5308.78    -4.21856   88.4886   
5385.73    -3.93416   89.4373   
5463.8     -3.64322   90.395    
5542.99    -3.34566   91.3617   
5623.34    -3.04131   92.3374   
5704.85    -3.27074   93.9281   
5787.55    -3.50719   95.5458   
5871.44    -3.75083   97.191    
5956.54    -4.00183   98.8643   
