# Freq.    Mag.
0          2.0803e-05
8          2.01365e-05
16         1.69984e-05
24         1.37895e-05
32         1.25431e-05
40         1.14315e-05
48         1.04511e-05
56         9.40969e-06
64         8.14726e-06
72         7.26534e-06
80         6.7877e-06
88         6.22755e-06
96         5.8049e-06
104        5.65263e-06
112        5.63519e-06
120        5.65093e-06
128        5.56576e-06
136        5.10636e-06
144        4.53055e-06
152        4.21501e-06
160        4.11889e-06
168        4.15261e-06
176        4.05146e-06
184        3.8065e-06
192        3.66108e-06
200        3.45091e-06
208        3.21014e-06
216        3.0802e-06
224        3.0917e-06
232        3.06332e-06
240        2.91435e-06
248        2.81498e-06
256        2.72612e-06
264        2.65362e-06
272        2.44863e-06
280        2.22824e-06
288        2.25809e-06
296        2.36429e-06
304        2.44693e-06
312        2.43608e-06
320        2.25347e-06
328        2.12287e-06
336        2.16017e-06
344        2.23746e-06
352        2.23193e-06
360        2.10285e-06
368        2.05466e-06
376        2.08171e-06
384        1.97464e-06
392        1.84899e-06
400        1.69987e-06
408        1.6461e-06
416        1.73133e-06
424        1.76081e-06
432        1.66221e-06
440        1.54777e-06
448        1.46734e-06
456        1.41056e-06
464        1.40017e-06
472        1.47927e-06
480        1.48239e-06
488        1.39994e-06
496        1.33904e-06
504        1.30965e-06
512        1.34546e-06
520        1.44551e-06
528        1.50642e-06
536        1.49005e-06
544        1.41464e-06
552        1.32567e-06
560        1.32086e-06
568        1.3683e-06
576        1.39849e-06
584        1.45001e-06
592        1.45192e-06
600        1.35233e-06
608        1.27263e-06
616        1.21213e-06
624        1.1302e-06
632        1.06603e-06
640        1.09721e-06
648        1.18818e-06
656        1.25426e-06
664        1.22089e-06
672        1.17761e-06
680        1.19051e-06
688        1.21818e-06
696        1.25221e-06
704        1.29008e-06
712        1.34621e-06
720        1.30562e-06
728        1.19593e-06
736        1.08211e-06
744        9.67282e-07
752        1.00329e-06
760        1.13872e-06
768        1.2449e-06
776        1.22894e-06
784        1.17189e-06
792        1.10995e-06
800        1.05985e-06
808        1.07408e-06
816        1.10488e-06
824        1.07999e-06
832        1.04389e-06
840        9.98203e-07
848        9.80869e-07
856        9.95608e-07
864        9.92942e-07
872        1.0266e-06
880        1.03804e-06
888        1.0545e-06
896        1.05381e-06
904        1.05233e-06
912        1.03599e-06
920        9.86048e-07
928        9.89446e-07
936        1.02098e-06
944        1.02044e-06
952        1.00761e-06
960        1.00322e-06
968        9.85908e-07
976        1.03639e-06
984        1.44066e-06
992        1.79849e-06
1000       1.82082e-06
1008       1.78979e-06
1016       1.38589e-06
1024       9.95082e-07
1032       9.28217e-07
1040       8.95665e-07
1048       8.93147e-07
1056       9.18242e-07
1064       9.22431e-07
1072       8.89873e-07
1080       8.65548e-07
1088       8.8183e-07
1096       8.71119e-07
1104       8.37366e-07
1112       7.86542e-07
1120       8.63216e-07
1128       1.00853e-06
1136       1.07198e-06
1144       1.07487e-06
1152       1.08385e-06
1160       1.07155e-06
1168       1.01763e-06
1176       9.22722e-07
1184       8.75153e-07
1192       9.22872e-07
1200       9.61363e-07
1208       9.78464e-07
1216       9.2907e-07
1224       8.6058e-07
1232       8.25254e-07
1240       8.40893e-07
1248       8.43638e-07
1256       8.41436e-07
1264       8.81613e-07
1272       9.34889e-07
1280       9.34679e-07
1288       8.91735e-07
1296       8.67291e-07
1304       8.67565e-07
1312       8.71195e-07
1320       8.23651e-07
1328       7.95092e-07
1336       8.18199e-07
1344       8.29829e-07
1352       8.30235e-07
1360       8.44294e-07
1368       8.70415e-07
1376       8.54266e-07
1384       8.3721e-07
1392       8.60986e-07
1400       8.76648e-07
1408       8.32453e-07
1416       7.88161e-07
1424       8.13025e-07
1432       8.6229e-07
1440       8.85695e-07
1448       8.78614e-07
1456       8.42584e-07
1464       8.11158e-07
1472       8.12102e-07
1480       8.60147e-07
1488       8.97349e-07
1496       9.18633e-07
1504       9.21421e-07
1512       8.90221e-07
1520       8.42127e-07
1528       8.63582e-07
1536       9.01167e-07
1544       8.92425e-07
1552       8.73159e-07
1560       8.63549e-07
1568       8.61357e-07
1576       8.41331e-07
1584       8.09864e-07
1592       7.95954e-07
1600       7.93225e-07
1608       7.91402e-07
1616       7.65346e-07
1624       7.44653e-07
1632       7.5509e-07
1640       7.78164e-07
1648       8.02327e-07
1656       8.30019e-07
1664       8.60491e-07
1672       8.74271e-07
1680       8.99533e-07
1688       8.88842e-07
1696       8.5111e-07
1704       8.44813e-07
1712       8.38176e-07
1720       8.14745e-07
1728       8.04699e-07
1736       8.16024e-07
1744       8.5232e-07
1752       8.87789e-07
1760       8.93911e-07
1768       8.74631e-07
1776       8.11928e-07
1784       7.56479e-07
1792       7.49961e-07
1800       7.66133e-07
1808       8.12419e-07
1816       8.42342e-07
1824       8.308e-07 
1832       8.06539e-07
1840       7.91644e-07
1848       8.03664e-07
1856       7.87622e-07
1864       7.87143e-07
1872       8.08782e-07
1880       8.4041e-07
1888       8.79674e-07
1896       8.83404e-07
1904       8.92474e-07
1912       8.76065e-07
1920       8.36242e-07
1928       8.15517e-07
1936       8.17769e-07
1944       8.28352e-07
1952       8.52843e-07
1960       8.47269e-07
1968       7.93769e-07
1976       7.3699e-07
1984       7.37459e-07
1992       7.90958e-07
2000       8.12115e-07
2008       8.04027e-07
2016       7.89583e-07
2024       8.12887e-07
2032       8.61595e-07
2040       8.61232e-07
2048       8.07593e-07
2056       7.6501e-07
2064       7.45085e-07
2072       7.51081e-07
2080       7.43338e-07
2088       7.17826e-07
2096       7.36368e-07
2104       7.59289e-07
2112       7.72179e-07
2120       8.04545e-07
2128       8.1678e-07
2136       8.44283e-07
2144       8.82534e-07
2152       8.68517e-07
2160       8.44291e-07
2168       8.1916e-07
2176       8.00673e-07
2184       8.23706e-07
2192       8.32022e-07
2200       8.14831e-07
2208       8.0228e-07
2216       7.91549e-07
2224       7.91103e-07
2232       8.00094e-07
2240       8.1616e-07
2248       8.35348e-07
2256       8.42194e-07
2264       8.2815e-07
2272       7.88265e-07
2280       7.64438e-07
2288       7.90376e-07
2296       8.31665e-07
2304       8.59642e-07
2312       8.6491e-07
2320       8.63511e-07
2328       8.64268e-07
2336       8.81161e-07
2344       8.56111e-07
2352       8.13905e-07
2360       8.09343e-07
2368       8.38364e-07
2376       8.57234e-07
2384       8.59285e-07
2392       8.55794e-07
2400       8.11485e-07
2408       7.70497e-07
2416       7.55143e-07
2424       7.50549e-07
2432       7.5184e-07
2440       7.70086e-07
2448       7.81199e-07
2456       7.90576e-07
2464       7.71581e-07
2472       7.19966e-07
2480       6.82692e-07
2488       7.11362e-07
2496       7.21064e-07
2504       6.89503e-07
2512       6.76801e-07
2520       7.26498e-07
2528       8.25355e-07
2536       8.65214e-07
2544       8.89169e-07
2552       9.10135e-07
2560       9.12974e-07
2568       9.05593e-07
2576       8.68656e-07
2584       8.4119e-07
2592       8.37121e-07
2600       8.39839e-07
2608       8.40267e-07
2616       8.25494e-07
2624       7.81142e-07
2632       7.62321e-07
2640       7.64976e-07
2648       7.75603e-07
2656       7.82589e-07
2664       8.04141e-07
2672       8.45274e-07
2680       8.57157e-07
2688       8.263e-07 
2696       7.76624e-07
2704       7.74429e-07
2712       7.88596e-07
2720       7.84746e-07
2728       7.92427e-07
2736       8.19686e-07
2744       8.60246e-07
2752       8.82298e-07
2760       8.81871e-07
2768       8.54204e-07
2776       8.28839e-07
2784       8.26594e-07
2792       8.26277e-07
2800       8.01055e-07
2808       7.82503e-07
2816       7.58094e-07
2824       7.4732e-07
2832       7.45766e-07
2840       7.49432e-07
2848       7.67987e-07
2856       7.68603e-07
2864       7.71624e-07
2872       7.62186e-07
2880       7.22786e-07
2888       7.31708e-07
2896       7.27755e-07
2904       7.20997e-07
2912       7.34536e-07
2920       7.47371e-07
2928       7.565e-07 
2936       7.16449e-07
2944       7.02331e-07
2952       7.37833e-07
2960       7.8549e-07
2968       8.46823e-07
2976       8.62766e-07
2984       8.91325e-07
2992       9.29021e-07
3000       9.1095e-07
3008       9.32548e-07
3016       8.51688e-07
3024       7.60206e-07
3032       7.38604e-07
3040       7.1608e-07
3048       6.90023e-07
3056       7.01741e-07
3064       7.09813e-07
3072       6.97555e-07
3080       7.0997e-07
3088       7.44634e-07
3096       7.86287e-07
3104       7.93632e-07
3112       7.73609e-07
3120       7.31481e-07
3128       6.8478e-07
3136       6.53037e-07
3144       6.73318e-07
3152       7.12314e-07
3160       7.47679e-07
3168       7.66854e-07
3176       7.80284e-07
3184       7.78216e-07
3192       7.54535e-07
3200       7.55455e-07
3208       7.55702e-07
3216       7.4112e-07
3224       7.32961e-07
3232       7.33663e-07
3240       7.39938e-07
3248       7.71938e-07
3256       7.92183e-07
3264       7.97694e-07
3272       7.92572e-07
3280       7.52754e-07
3288       7.634e-07 
3296       7.88447e-07
3304       7.81165e-07
3312       7.4744e-07
3320       7.22144e-07
3328       7.23389e-07
3336       7.17428e-07
3344       7.18656e-07
3352       7.10255e-07
3360       6.84706e-07
3368       6.63847e-07
3376       6.6747e-07
3384       6.99408e-07
3392       7.23005e-07
3400       7.56617e-07
3408       7.83673e-07
3416       7.64486e-07
3424       7.43158e-07
3432       7.22688e-07
3440       7.03192e-07
3448       6.98708e-07
3456       6.73352e-07
3464       6.71024e-07
3472       6.79552e-07
3480       6.54381e-07
3488       6.60395e-07
3496       6.66402e-07
3504       6.34e-07  
3512       6.38031e-07
3520       6.84071e-07
3528       7.38927e-07
3536       7.40902e-07
3544       7.12727e-07
3552       6.71661e-07
3560       6.5306e-07
3568       6.77467e-07
3576       6.90964e-07
3584       6.77007e-07
3592       7.01525e-07
3600       7.19605e-07
3608       6.79722e-07
3616       6.88648e-07
3624       6.96216e-07
3632       7.00112e-07
3640       7.00299e-07
3648       6.785e-07 
3656       6.52897e-07
3664       6.31426e-07
3672       6.27359e-07
3680       6.37837e-07
3688       6.38547e-07
3696       6.58711e-07
3704       6.39732e-07
3712       5.84589e-07
3720       5.75998e-07
3728       5.78173e-07
3736       6.02305e-07
3744       6.51476e-07
3752       6.6874e-07
3760       6.6752e-07
3768       6.44637e-07
3776       6.21514e-07
3784       6.41822e-07
3792       6.36691e-07
3800       6.31989e-07
3808       6.46594e-07
3816       6.62396e-07
3824       6.73113e-07
3832       7.00014e-07
3840       6.97173e-07
3848       6.7349e-07
3856       6.49862e-07
3864       6.3796e-07
3872       6.52772e-07
3880       6.42189e-07
3888       6.54063e-07
3896       6.54417e-07
3904       6.44014e-07
3912       6.40091e-07
3920       6.50892e-07
3928       6.80522e-07
3936       6.87487e-07
3944       6.34685e-07
3952       6.20003e-07
3960       6.49762e-07
3968       6.91698e-07
3976       7.25277e-07
3984       7.01384e-07
3992       6.6662e-07
4000       6.28379e-07
4008       6.10357e-07
4016       6.21165e-07
4024       6.433e-07 
4032       6.61054e-07
4040       6.48479e-07
4048       6.04588e-07
4056       5.4911e-07
4064       5.35907e-07
4072       5.54308e-07
4080       5.94553e-07
4088       6.62421e-07
4096       6.72464e-07
4104       6.77939e-07
4112       6.7819e-07
4120       6.70132e-07
4128       6.7152e-07
4136       6.69413e-07
4144       6.4076e-07
4152       6.01189e-07
4160       5.80663e-07
4168       6.16036e-07
4176       6.68927e-07
4184       6.82391e-07
4192       6.67859e-07
4200       6.57246e-07
4208       6.73445e-07
4216       6.79475e-07
4224       6.99594e-07
4232       6.74675e-07
4240       5.96139e-07
4248       5.74186e-07
4256       6.07015e-07
4264       6.53611e-07
4272       6.93591e-07
4280       7.20738e-07
4288       7.25251e-07
4296       7.14272e-07
4304       7.11095e-07
4312       7.08763e-07
4320       7.16592e-07
4328       7.3768e-07
4336       7.55216e-07
4344       7.46613e-07
4352       6.93699e-07
4360       6.62189e-07
4368       6.806e-07 
4376       7.10422e-07
4384       6.92575e-07
4392       6.23873e-07
4400       6.08093e-07
4408       6.22705e-07
4416       6.37974e-07
4424       6.31743e-07
4432       6.11033e-07
4440       6.31845e-07
4448       6.54771e-07
4456       6.58816e-07
4464       6.48944e-07
4472       6.58462e-07
4480       6.88816e-07
4488       7.03967e-07
4496       6.82165e-07
4504       6.90952e-07
4512       7.27205e-07
4520       7.26405e-07
4528       7.16501e-07
4536       7.05044e-07
4544       6.97726e-07
4552       6.9678e-07
4560       6.9206e-07
4568       6.76598e-07
4576       6.23251e-07
4584       5.99265e-07
4592       6.51031e-07
4600       7.21747e-07
4608       7.79709e-07
4616       7.82628e-07
4624       7.21303e-07
4632       6.58789e-07
4640       6.18976e-07
4648       6.2576e-07
4656       6.54393e-07
4664       6.53351e-07
4672       6.20192e-07
4680       6.26303e-07
4688       6.57775e-07
4696       6.69096e-07
4704       6.55683e-07
4712       6.50104e-07
4720       6.71831e-07
4728       7.0467e-07
4736       7.25632e-07
4744       7.47978e-07
4752       7.35482e-07
4760       7.17621e-07
4768       7.0481e-07
4776       6.96237e-07
4784       6.66086e-07
4792       6.17983e-07
4800       5.99191e-07
4808       6.14207e-07
4816       6.15192e-07
4824       6.13818e-07
4832       6.37791e-07
4840       6.35052e-07
4848       5.94771e-07
4856       5.59348e-07
4864       5.88258e-07
4872       6.37174e-07
4880       6.5948e-07
4888       6.66625e-07
4896       6.66201e-07
4904       6.89855e-07
4912       6.87515e-07
4920       6.65904e-07
4928       6.84815e-07
4936       7.09737e-07
4944       7.19242e-07
4952       6.92313e-07
4960       6.35238e-07
4968       6.12547e-07
4976       6.60469e-07
4984       7.28834e-07
4992       7.56647e-07
5000       7.39148e-07
5008       7.37064e-07
5016       6.90756e-07
5024       6.45431e-07
5032       6.66741e-07
5040       6.89217e-07
5048       6.72418e-07
5056       6.38278e-07
5064       6.21583e-07
5072       6.19318e-07
5080       6.23543e-07
5088       6.54213e-07
5096       6.85863e-07
5104       7.10614e-07
5112       7.18731e-07
5120       7.16714e-07
5128       7.01518e-07
5136       6.80328e-07
5144       6.64513e-07
5152       6.45027e-07
5160       6.29564e-07
5168       6.09309e-07
5176       6.10148e-07
5184       6.20619e-07
5192       6.38174e-07
5200       6.57162e-07
5208       6.90414e-07
5216       6.89224e-07
5224       6.93934e-07
5232       7.20151e-07
5240       6.9869e-07
5248       6.58895e-07
5256       6.60023e-07
5264       6.49408e-07
5272       6.11846e-07
5280       5.9134e-07
5288       5.85732e-07
5296       5.96137e-07
5304       6.14847e-07
5312       6.37218e-07
5320       6.84718e-07
5328       7.06158e-07
5336       6.93009e-07
5344       6.46046e-07
5352       6.072e-07 
5360       6.38111e-07
5368       6.74839e-07
5376       6.76669e-07
5384       6.85234e-07
5392       6.64062e-07
5400       6.5243e-07
5408       6.52536e-07
5416       6.19015e-07
5424       6.08106e-07
5432       6.01505e-07
5440       6.05374e-07
5448       6.2155e-07
5456       6.20489e-07
5464       6.18037e-07
5472       6.09191e-07
5480       6.1161e-07
5488       6.71584e-07
5496       6.73199e-07
5504       6.3867e-07
5512       6.28764e-07
5520       6.25123e-07
5528       6.25281e-07
5536       6.41071e-07
5544       6.86741e-07
5552       7.37073e-07
5560       7.83145e-07
5568       7.90888e-07
5576       7.63658e-07
5584       7.39459e-07
5592       7.2541e-07
5600       7.06848e-07
5608       6.79648e-07
5616       6.81627e-07
5624       7.17627e-07
5632       7.08343e-07
5640       6.79194e-07
5648       6.68373e-07
5656       6.77585e-07
5664       6.85981e-07
5672       6.83324e-07
5680       6.7815e-07
5688       6.70235e-07
5696       6.55116e-07
5704       6.24189e-07
5712       6.21245e-07
5720       6.61601e-07
5728       6.71949e-07
5736       6.62317e-07
5744       6.60402e-07
5752       6.51149e-07
5760       6.41756e-07
5768       6.43312e-07
5776       6.50566e-07
5784       6.57342e-07
5792       6.75912e-07
5800       6.90517e-07
5808       6.60294e-07
5816       6.1864e-07
5824       5.76875e-07
5832       5.76036e-07
5840       6.27355e-07
5848       6.62716e-07
5856       6.6753e-07
5864       6.5154e-07
5872       6.36458e-07
5880       6.53722e-07
5888       6.77396e-07
5896       6.50027e-07
5904       6.04583e-07
5912       5.89311e-07
5920       6.11781e-07
5928       6.60194e-07
5936       6.84097e-07
5944       6.85278e-07
5952       6.4319e-07
5960       6.03938e-07
5968       6.27432e-07
5976       6.33795e-07
5984       6.34473e-07
5992       6.22445e-07
6000       6.52011e-07
6008       7.19311e-07
6016       7.1721e-07
6024       6.75327e-07
6032       6.73054e-07
6040       6.87934e-07
6048       7.04317e-07
6056       6.92536e-07
6064       7.05978e-07
6072       7.33955e-07
6080       7.19172e-07
6088       6.96669e-07
6096       6.62609e-07
6104       6.45931e-07
6112       6.60876e-07
6120       6.65662e-07
6128       6.53928e-07
6136       6.35954e-07
6144       6.3927e-07
6152       6.348e-07 
6160       6.42537e-07
6168       6.65053e-07
6176       6.64635e-07
6184       6.37216e-07
6192       6.08531e-07
6200       6.12158e-07
6208       6.45581e-07
6216       6.66179e-07
6224       6.7513e-07
6232       6.71928e-07
6240       6.38779e-07
6248       6.23173e-07
6256       6.27316e-07
6264       6.13915e-07
6272       6.29556e-07
6280       6.44648e-07
6288       6.4493e-07
6296       6.32373e-07
6304       6.3537e-07
6312       6.36077e-07
6320       6.29592e-07
6328       6.13839e-07
6336       5.97898e-07
6344       5.89027e-07
6352       6.01375e-07
6360       6.1641e-07
6368       6.46178e-07
6376       6.73172e-07
6384       7.0069e-07
6392       7.57479e-07
6400       7.94952e-07
6408       7.91513e-07
6416       7.38617e-07
6424       6.8638e-07
6432       6.69517e-07
6440       6.62635e-07
6448       6.51771e-07
6456       6.31768e-07
6464       6.08129e-07
6472       6.19579e-07
6480       6.38391e-07
6488       6.3443e-07
6496       6.16662e-07
6504       6.19891e-07
6512       6.3735e-07
6520       6.47159e-07
6528       6.4397e-07
6536       6.53552e-07
6544       6.74378e-07
6552       7.04577e-07
6560       7.27242e-07
6568       7.08068e-07
6576       6.81565e-07
6584       6.70335e-07
6592       6.53519e-07
6600       6.34758e-07
6608       6.30027e-07
6616       6.29406e-07
6624       6.58959e-07
6632       7.12762e-07
6640       7.31151e-07
6648       7.0862e-07
6656       6.60288e-07
6664       6.3875e-07
6672       6.62929e-07
6680       6.86356e-07
6688       6.88938e-07
6696       6.91038e-07
6704       6.54123e-07
6712       6.00276e-07
6720       5.88928e-07
6728       6.13108e-07
6736       6.5283e-07
6744       6.69159e-07
6752       6.70858e-07
6760       6.92931e-07
6768       7.20298e-07
6776       7.14234e-07
6784       6.60834e-07
6792       6.0562e-07
6800       5.88463e-07
6808       5.78188e-07
6816       5.98214e-07
6824       6.02562e-07
6832       6.1216e-07
6840       6.28161e-07
6848       6.51377e-07
6856       6.87978e-07
6864       6.90232e-07
6872       6.92237e-07
6880       7.00899e-07
6888       6.86565e-07
6896       6.75566e-07
6904       6.70065e-07
6912       6.91272e-07
6920       7.11777e-07
6928       7.41755e-07
6936       7.49976e-07
6944       7.20071e-07
6952       6.83388e-07
6960       6.47852e-07
6968       6.48628e-07
6976       6.57929e-07
