# Freq.    Re    Im
0.999987   -20.7914   -0.896181 
1.01448    -20.8056   -0.919592 
1.02919    -20.8198   -0.943035 
1.04411    -20.834    -0.966511 
1.05924    -20.8482   -0.99002  
1.07459    -20.8623   -1.01357  
1.09017    -20.8595   -1.05401  
1.10597    -20.8566   -1.09444  
1.122      -20.8536   -1.13487  
1.13827    -20.8506   -1.17529  
1.15477    -20.8474   -1.2157   
1.17151    -20.8419   -1.21492  
1.18849    -20.8364   -1.21414  
1.20571    -20.8308   -1.21336  
1.22319    -20.8253   -1.21258  
1.24092    -20.8198   -1.21179  
1.25891    -20.8181   -1.23075  
1.27716    -20.8163   -1.2497   
1.29567    -20.8146   -1.26866  
1.31445    -20.8128   -1.2876   
1.3335     -20.8111   -1.30655  
1.35283    -20.8145   -1.31259  
1.37244    -20.8179   -1.31862  
1.39234    -20.8213   -1.32466  
1.41252    -20.8247   -1.3307   
1.43299    -20.8281   -1.33674  
1.45377    -20.7934   -1.34883  
1.47484    -20.7587   -1.36087  
1.49622    -20.7241   -1.37287  
1.5179     -20.6895   -1.38482  
1.53991    -20.655    -1.39673  
1.56223    -20.6785   -1.40893  
1.58487    -20.702    -1.42116  
1.60785    -20.7256   -1.43341  
1.63115    -20.7491   -1.44569  
1.6548     -20.7727   -1.45799  
1.67878    -20.7577   -1.51718  
1.70312    -20.7426   -1.57629  
1.7278     -20.7273   -1.63533  
1.75285    -20.7118   -1.6943   
1.77826    -20.6961   -1.75319  
1.80403    -20.7343   -1.81221  
1.83018    -20.7725   -1.87146  
1.85671    -20.8106   -1.93092  
1.88362    -20.8485   -1.99062  
1.91093    -20.8864   -2.05053  
1.93863    -20.8769   -2.04185  
1.96673    -20.8673   -2.03318  
1.99524    -20.8578   -2.02451  
2.02416    -20.8483   -2.01585  
2.0535     -20.8388   -2.0072   
2.08326    -20.8229   -2.04902  
2.11346    -20.8069   -2.09078  
2.1441     -20.7909   -2.13249  
2.17518    -20.7748   -2.17414  
2.20671    -20.7586   -2.21574  
2.23869    -20.75     -2.27305  
2.27114    -20.7413   -2.33033  
2.30406    -20.7324   -2.38758  
2.33746    -20.7234   -2.4448   
2.37134    -20.7142   -2.50199  
2.40572    -20.6906   -2.53816  
2.44059    -20.667    -2.57425  
2.47596    -20.6434   -2.61026  
2.51185    -20.6197   -2.6462   
2.54826    -20.596    -2.68206  
2.5852     -20.5459   -2.69969  
2.62267    -20.4959   -2.71722  
2.66069    -20.4461   -2.73465  
2.69926    -20.3963   -2.75199  
2.73838    -20.3466   -2.76923  
2.77808    -20.4319   -2.85452  
2.81835    -20.5174   -2.94051  
2.8592     -20.6029   -3.02721  
2.90064    -20.6885   -3.11462  
2.94269    -20.7742   -3.20274  
2.98534    -20.7681   -3.15585  
3.02862    -20.7618   -3.10901  
3.07252    -20.7555   -3.06221  
3.11705    -20.7491   -3.01546  
3.16224    -20.7426   -2.96875  
3.20807    -20.7063   -3.08005  
3.25458    -20.6695   -3.19104  
3.30175    -20.632    -3.30173  
3.34961    -20.594    -3.41211  
3.39816    -20.5554   -3.52217  
3.44742    -20.5043   -3.64595  
3.49739    -20.4524   -3.76923  
3.54809    -20.3998   -3.89201  
3.59952    -20.3466   -4.0143   
3.65169    -20.2926   -4.13608  
3.70463    -20.344    -4.18313  
3.75833    -20.3955   -4.23041  
3.8128     -20.4471   -4.27791  
3.86807    -20.4987   -4.32564  
3.92414    -20.5504   -4.37359  
3.98102    -20.4807   -4.42124  
4.03873    -20.4111   -4.46854  
4.09727    -20.3415   -4.51551  
4.15666    -20.272    -4.56215  
4.21691    -20.2025   -4.60847  
4.27804    -20.2778   -4.63423  
4.34005    -20.3535   -4.66012  
4.40296    -20.4294   -4.68615  
4.46678    -20.5056   -4.7123   
4.53153    -20.582    -4.73859  
4.59721    -20.5461   -4.84841  
4.66385    -20.5095   -4.95799  
4.73145    -20.4724   -5.06732  
4.80004    -20.4347   -5.17639  
4.86961    -20.3964   -5.28521  
4.9402     -20.2459   -5.38606  
5.01181    -20.0956   -5.48536  
5.08446    -19.9455   -5.58313  
5.15816    -19.7956   -5.67938  
5.23292    -19.646    -5.77411  
5.30878    -20.0734   -7.17709  
5.38573    -20.4336   -8.66085  
5.4638     -20.7192   -10.2245  
5.54299    -20.9224   -11.8668  
5.62334    -21.0354   -13.5859  
5.70485    -20.9823   -12.0059  
5.78755    -20.8491   -10.4856  
5.87144    -20.642    -9.02692  
5.95654    -20.3666   -7.63152  
6.04289    -20.0289   -6.30065  
6.13048    -19.9435   -6.43587  
6.21934    -19.8574   -6.5702   
6.30949    -19.7704   -6.70364  
6.40095    -19.6826   -6.83618  
6.49373    -19.594    -6.96781  
6.58786    -19.5999   -7.08361  
6.68335    -19.6052   -7.19969  
6.78023    -19.6099   -7.31604  
6.87851    -19.6141   -7.43266  
6.97822    -19.6176   -7.54956  
7.07937    -19.5899   -7.57814  
7.18198    -19.5621   -7.60666  
7.28609    -19.5343   -7.6351   
7.3917     -19.5064   -7.66348  
7.49885    -19.4786   -7.69179  
7.60754    -19.843    -7.33079  
7.71782    -20.2029   -6.95806  
7.82969    -20.5579   -6.57358  
7.94318    -20.9079   -6.17736  
8.05832    -21.2524   -5.76938  
8.17513    -20.7126   -6.51857  
8.29363    -20.1513   -7.23552  
8.41384    -19.5702   -7.91988  
8.5358     -18.9708   -8.57133  
8.65953    -18.3546   -9.18964  
8.78505    -18.3032   -9.21641  
8.91239    -18.2519   -9.24301  
9.04158    -18.2005   -9.26945  
9.17264    -18.1492   -9.29573  
9.3056     -18.0979   -9.32186  
9.44049    -18.1243   -9.49932  
9.57733    -18.1496   -9.67788  
9.71615    -18.1737   -9.85755  
9.85699    -18.1966   -10.0383  
9.99987    -18.2184   -10.2202  
10.1448    -18.1644   -10.2478  
10.2919    -18.1105   -10.2752  
10.4411    -18.0566   -10.3025  
10.5924    -18.0027   -10.3296  
10.7459    -17.9489   -10.3565  
10.9017    -17.8719   -10.571   
11.0597    -17.7924   -10.785   
11.22      -17.7104   -10.9985  
11.3827    -17.626    -11.2117  
11.5477    -17.5391   -11.4243  
11.7151    -17.3653   -11.5681  
11.8849    -17.1907   -11.7097  
12.0571    -17.0151   -11.849   
12.2319    -16.8387   -11.9861  
12.4092    -16.6613   -12.1209  
12.5891    -16.6773   -12.3119  
12.7716    -16.692    -12.5042  
12.9567    -16.7054   -12.6977  
13.1445    -16.7176   -12.8926  
13.335     -16.7285   -13.0887  
13.5283    -16.5232   -13.3701  
13.7244    -16.3132   -13.6484  
13.9234    -16.0985   -13.9233  
14.1252    -15.8792   -14.1949  
14.3299    -15.6554   -14.463   
14.5377    -15.5565   -14.4154  
14.7484    -15.4583   -14.368   
14.9622    -15.3605   -14.3206  
15.179     -15.2634   -14.2733  
15.3991    -15.1668   -14.2261  
15.6223    -15.1062   -14.4606  
15.8487    -15.0429   -14.6958  
16.0785    -14.9769   -14.9316  
16.3115    -14.9081   -15.1682  
16.548     -14.8365   -15.4053  
16.7878    -14.6709   -15.5703  
17.0312    -14.5034   -15.7335  
17.278     -14.3342   -15.8949  
17.5285    -14.1631   -16.0545  
17.7826    -13.9903   -16.2122  
18.0403    -13.7561   -16.3066  
18.3018    -13.5218   -16.398   
18.5671    -13.2873   -16.4864  
18.8362    -13.0528   -16.5719  
19.1093    -12.8182   -16.6545  
19.3863    -12.5934   -16.795   
19.6673    -12.3672   -16.9324  
19.9524    -12.1395   -17.0669  
20.2416    -11.9104   -17.1984  
20.535     -11.6799   -17.3268  
20.8326    -11.3796   -17.384   
21.1346    -11.0802   -17.4368  
21.441     -10.7819   -17.4853  
21.7518    -10.4846   -17.5296  
22.0671    -10.1884   -17.5695  
22.3869    -10.0253   -17.7877  
22.7114    -9.85853   -18.005   
23.0406    -9.68824   -18.2214  
23.3746    -9.51438   -18.4368  
23.7134    -9.33695   -18.6513  
24.0572    -9.08574   -18.7134  
24.4059    -8.83446   -18.7723  
24.7596    -8.58315   -18.828   
25.1185    -8.33186   -18.8805  
25.4826    -8.08063   -18.9298  
25.852     -7.85658   -19.0268  
26.2267    -7.63136   -19.1212  
26.6069    -7.40502   -19.2129  
26.9926    -7.17757   -19.302   
27.3838    -6.94906   -19.3883  
27.7808    -6.68022   -19.4843  
28.1835    -6.41007   -19.5766  
28.592     -6.13863   -19.6651  
29.0064    -5.86598   -19.7498  
29.4269    -5.59215   -19.8308  
29.8534    -5.31903   -19.8522  
30.2862    -5.04634   -19.8699  
30.7252    -4.77413   -19.8841  
31.1705    -4.50244   -19.8947  
31.6224    -4.23131   -19.9017  
32.0807    -3.97196   -19.9461  
32.5458    -3.71217   -19.9872  
33.0175    -3.45199   -20.0248  
33.4961    -3.19145   -20.0591  
33.9816    -2.93061   -20.0901  
34.4742    -2.60884   -20.177   
34.9739    -2.28502   -20.2589  
35.4809    -1.95924   -20.3356  
35.9952    -1.63157   -20.4072  
36.5169    -1.3021    -20.4736  
37.0463    -1.03522   -20.355   
37.5833    -0.771599  -20.2339  
38.128     -0.511245  -20.1102  
38.6807    -0.254169  -19.984   
39.2414    -0.000376812 -19.8555  
39.8102    0.333066   -19.9003  
40.3873    0.668015   -19.9397  
40.9727    1.00438    -19.9735  
41.5666    1.34208    -20.0018  
42.1691    1.68101    -20.0245  
42.7804    1.95609    -19.9849  
43.4005    2.2304     -19.9416  
44.0296    2.50389    -19.8946  
44.6678    2.77651    -19.8438  
45.3153    3.0482     -19.7893  
45.9721    3.33437    -19.7324  
46.6385    3.61952    -19.6713  
47.3145    3.9036     -19.6061  
48.0004    4.18654    -19.5368  
48.6961    4.4683     -19.4634  
49.402     4.748      -19.4174  
50.1181    5.0273     -19.3674  
50.8446    5.30614    -19.3134  
51.5816    5.58446    -19.2553  
52.3292    5.8622     -19.1933  
53.0878    6.13025    -19.0238  
53.8573    6.39459    -18.8509  
54.638     6.6552     -18.6747  
55.4299    6.91203    -18.4952  
56.2334    7.16505    -18.3126  
57.0485    7.42037    -18.2366  
57.8755    7.67496    -18.157   
58.7144    7.92875    -18.0738  
59.5654    8.18171    -17.9872  
60.4289    8.4338     -17.897   
61.3048    8.63867    -17.7446  
62.1934    8.84108    -17.5901  
63.0949    9.04103    -17.4333  
64.0095    9.23849    -17.2744  
64.9373    9.43341    -17.1135  
65.8786    9.66188    -17.013   
66.8335    9.88932    -16.9095  
67.8023    10.1157    -16.8029  
68.7851    10.341     -16.6934  
69.7822    10.5651    -16.5809  
70.7937    10.7724    -16.4033  
71.8198    10.9768    -16.2231  
72.8609    11.1783    -16.0405  
73.917     11.377     -15.8556  
74.9885    11.5726    -15.6682  
76.0754    11.7668    -15.5231  
77.1782    11.9591    -15.3757  
78.2969    12.1496    -15.2259  
79.4318    12.3382    -15.0737  
80.5832    12.525     -14.9192  
81.7513    12.6455    -14.6976  
82.9363    12.7629    -14.4756  
84.1384    12.877     -14.2532  
85.358     12.9879    -14.0305  
86.5953    13.0955    -13.8075  
87.8505    13.2732    -13.7188  
89.1239    13.4505    -13.628   
90.4158    13.6274    -13.5352  
91.7264    13.804     -13.4404  
93.056     13.9802    -13.3434  
94.4049    14.105     -13.1216  
95.7733    14.2267    -12.8989  
97.1615    14.3451    -12.6753  
98.5699    14.4602    -12.451   
99.9987    14.5722    -12.2259  
101.448    14.7227    -12.1021  
102.919    14.8723    -11.9766  
104.411    15.0208    -11.8494  
105.924    15.1684    -11.7204  
107.459    15.315     -11.5897  
109.017    15.3954    -11.3975  
110.597    15.4736    -11.2049  
112.2      15.5496    -11.0121  
113.827    15.6233    -10.8189  
115.477    15.6948    -10.6255  
117.151    15.8162    -10.4629  
118.849    15.9359    -10.299   
120.571    16.0539    -10.1337  
122.319    16.1702    -9.96699  
124.092    16.2848    -9.79899  
125.891    16.4016    -9.62792  
127.716    16.5166    -9.45546  
129.567    16.6298    -9.28164  
131.445    16.7412    -9.10648  
133.35     16.8508    -8.93     
135.283    16.9144    -8.76844  
137.244    16.9765    -8.60647  
139.234    17.0371    -8.4441   
141.252    17.0962    -8.28135  
143.299    17.1536    -8.11824  
145.377    17.1976    -7.97033  
147.484    17.2403    -7.82226  
149.622    17.2818    -7.67403  
151.79     17.3221    -7.52564  
153.991    17.3611    -7.37712  
156.223    17.4123    -7.2272   
158.487    17.4621    -7.07694  
160.785    17.5108    -6.92635  
163.115    17.5581    -6.77545  
165.48     17.6041    -6.62425  
167.878    17.6578    -6.44815  
170.312    17.7096    -6.27164  
172.78     17.7598    -6.09472  
175.285    17.8082    -5.91743  
177.826    17.8548    -5.73979  
180.403    17.9212    -5.63294  
183.018    17.987     -5.52547  
185.671    18.0522    -5.41741  
188.362    18.1168    -5.30874  
191.093    18.1808    -5.19947  
193.863    18.2278    -5.0111   
196.673    18.2728    -4.82231  
199.524    18.3158    -4.63313  
202.416    18.3569    -4.44357  
205.35     18.3961    -4.25366  
208.326    18.4054    -4.13471  
211.346    18.4139    -4.01581  
214.41     18.4217    -3.89698  
217.518    18.4287    -3.7782   
220.671    18.435     -3.6595   
223.869    18.4333    -3.50687  
227.114    18.4304    -3.35452  
230.406    18.4262    -3.20244  
233.746    18.4209    -3.05066  
237.134    18.4144    -2.89917  
240.572    18.464     -2.79368  
244.059    18.513     -2.68771  
247.596    18.5614    -2.58126  
251.185    18.6093    -2.47434  
254.826    18.6567    -2.36694  
258.52     18.7137    -2.19238  
262.267    18.7691    -2.01695  
266.069    18.823     -1.84066  
269.926    18.8752    -1.66354  
273.838    18.9259    -1.48558  
277.808    18.9218    -1.37129  
281.835    18.9171    -1.25709  
285.92     18.9117    -1.143    
290.064    18.9056    -1.02902  
294.269    18.8988    -0.915151 
298.534    18.9236    -0.743511 
302.862    18.9468    -0.571496 
307.252    18.9684    -0.39912  
311.705    18.9885    -0.226397 
316.224    19.007     -0.0533411
320.807    19.0279    0.0744735 
325.458    19.0479    0.202566  
330.175    19.0671    0.330932  
334.961    19.0854    0.459564  
339.816    19.1029    0.58846   
344.742    19.1109    0.644704  
349.739    19.1188    0.701001  
354.809    19.1265    0.757349  
359.952    19.134     0.813749  
365.169    19.1413    0.870199  
370.463    19.1374    1.08088   
375.833    19.1312    1.29158   
381.28     19.1226    1.50228   
386.807    19.1118    1.71294   
392.414    19.0986    1.92355   
398.102    19.1096    2.07861   
403.873    19.1193    2.23398   
409.727    19.1279    2.38964   
415.666    19.1352    2.54559   
421.691    19.1413    2.7018    
427.804    19.1653    2.8393    
434.005    19.1885    2.97726   
440.296    19.2107    3.11569   
446.678    19.2321    3.25458   
453.153    19.2525    3.39393   
459.721    19.2795    3.58876   
466.385    19.3048    3.78446   
473.145    19.3283    3.981     
480.004    19.35      4.17837   
486.961    19.3698    4.37656   
494.02     19.3827    4.48798   
501.181    19.3951    4.59967   
508.446    19.4069    4.71164   
515.816    19.4182    4.82388   
523.292    19.4288    4.9364    
530.878    19.4054    5.07573   
538.573    19.381     5.21499   
546.38     19.3556    5.35415   
554.299    19.3291    5.49321   
562.334    19.3017    5.63217   
570.485    19.3639    5.8204    
578.755    19.4248    6.01018   
587.144    19.4845    6.20152   
595.654    19.5431    6.39441   
604.289    19.6003    6.58886   
613.048    19.5713    6.77495   
621.934    19.5405    6.96107   
630.949    19.5081    7.1472    
640.095    19.4738    7.33332   
649.373    19.4379    7.51942   
658.786    19.4459    7.6898    
668.335    19.4526    7.86079   
678.023    19.458     8.03241   
687.851    19.4622    8.20463   
697.822    19.4651    8.37745   
707.937    19.4446    8.55002   
718.198    19.4228    8.72283   
728.609    19.3995    8.89588   
739.17     19.3747    9.06914   
749.885    19.3486    9.24262   
760.754    19.3277    9.46976   
771.782    19.3045    9.69753   
782.969    19.2789    9.9259    
794.318    19.2509    10.1549   
805.832    19.2206    10.3844   
817.513    19.2269    10.5787   
829.363    19.2318    10.7739   
841.384    19.2352    10.9701   
853.58     19.2371    11.1671   
865.953    19.2376    11.3651   
878.505    19.2888    11.586    
891.239    19.3388    11.8089   
904.158    19.3876    12.0337   
917.264    19.435     12.2605   
930.56     19.481     12.4892   
944.049    19.4574    12.7258   
957.733    19.4314    12.9634   
971.615    19.4032    13.2019   
985.699    19.3726    13.4412   
999.987    19.3397    13.6813   
1014.48    19.3454    13.9487   
1029.19    19.3486    14.218    
1044.11    19.3495    14.4891   
1059.24    19.3478    14.762    
1074.59    19.3437    15.0368   
1090.17    19.3612    15.2854   
1105.97    19.377     15.5358   
1122       19.3909    15.788    
1138.27    19.4031    16.0421   
1154.77    19.4133    16.298    
1171.51    19.397     16.5807   
1188.49    19.3779    16.8652   
1205.71    19.3562    17.1515   
1223.19    19.3318    17.4394   
1240.92    19.3047    17.7291   
1258.91    19.3183    18.0248   
1277.16    19.3297    18.3231   
1295.67    19.3388    18.6238   
1314.45    19.3456    18.927    
1333.5     19.35      19.2327   
1352.83    19.3492    19.5957   
1372.44    19.345     19.9621   
1392.34    19.3372    20.3318   
1412.52    19.3259    20.705    
1432.99    19.3109    21.0815   
1453.77    19.2926    21.3973   
1474.84    19.2717    21.7154   
1496.22    19.2481    22.0357   
1517.9     19.2218    22.3584   
1539.91    19.1927    22.6833   
1562.23    19.1936    23.027    
1584.87    19.1919    23.3737   
1607.85    19.1876    23.7235   
1631.15    19.1806    24.0763   
1654.8     19.171     24.4322   
1678.78    19.1931    24.8106   
1703.12    19.2128    25.1929   
1727.8     19.2301    25.5793   
1752.85    19.2448    25.9696   
1778.26    19.257     26.3639   
1804.03    19.2161    26.7795   
1830.18    19.1714    27.1987   
1856.71    19.1226    27.6215   
1883.62    19.0697    28.0479   
1910.93    19.0128    28.478    
1938.63    19.0279    28.9477   
1966.73    19.0398    29.423    
1995.24    19.0484    29.9039   
2024.16    19.0537    30.3904   
2053.5     19.0554    30.8827   
2083.26    19.082     31.3096   
2113.46    19.1066    31.741    
2144.1     19.129     32.1771   
2175.18    19.1491    32.6178   
2206.71    19.1671    33.0633   
2238.69    19.1504    33.6363   
2271.14    19.1289    34.2166   
2304.06    19.1026    34.8041   
2337.46    19.0713    35.3988   
2371.34    19.0348    36.0009   
2405.72    18.9605    36.4853   
2440.59    18.882     36.9737   
2475.96    18.7992    37.4664   
2511.85    18.7121    37.9632   
2548.26    18.6206    38.4641   
2585.2     18.6433    39.0439   
2622.67    18.6632    39.6309   
2660.69    18.6801    40.2253   
2699.26    18.694     40.8273   
2738.38    18.7048    41.4368   
2778.08    18.7683    42.0295   
2818.35    18.8301    42.6299   
2859.2     18.8903    43.238    
2900.64    18.9487    43.854    
2942.69    19.0053    44.4778   
2985.34    18.9258    45.1789   
3028.62    18.8403    45.8883   
3072.52    18.7485    46.6061   
3117.05    18.6505    47.3323   
3162.24    18.5459    48.067    
3208.07    18.5717    48.7753   
3254.58    18.5947    49.493    
3301.75    18.6148    50.2201   
3349.61    18.6319    50.9567   
3398.16    18.6459    51.703    
3447.42    18.5715    52.671    
3497.39    18.4889    53.654    
3548.09    18.3978    54.6523   
3599.52    18.298     55.6659   
3651.69    18.1892    56.6952   
3704.63    18.1309    57.3609   
3758.33    18.0691    58.0332   
3812.8     18.0037    58.7122   
3868.07    17.9347    59.3979   
3924.14    17.862     60.0904   
3981.02    17.8649    61.1566   
4038.73    17.8628    62.2402   
4097.27    17.8554    63.3415   
4156.66    17.8427    64.4607   
4216.91    17.8243    65.598    
4278.04    17.779     66.4738   
4340.05    17.7296    67.3602   
4402.96    17.676     68.2572   
4466.78    17.6182    69.165    
4531.53    17.556     70.0836   
4597.21    17.6518    71.2162   
4663.85    17.7463    72.3666   
4731.45    17.8394    73.535    
4800.04    17.9309    74.7219   
4869.61    18.0209    75.9274   
4940.2     17.8119    76.9407   
5011.81    17.5947    77.9651   
5084.46    17.3691    79.0005   
5158.16    17.135     80.0471   
5232.92    16.8922    81.105    
5308.78    16.818     82.3024   
5385.73    16.7381    83.5162   
5463.8     16.6525    84.7468   
5542.99    16.561     85.9941   
5623.34    16.4634    87.2586   
5704.85    16.6399    88.6324   
5787.55    16.818     90.0279   
5871.44    16.9975    91.4452   
5956.54    17.1785    92.8847   
