# Freq.    Mag.
0          2.07178e-05
8          2.05214e-05
16         1.85986e-05
24         1.60532e-05
32         1.39856e-05
40         1.21741e-05
48         1.0854e-05
56         9.88533e-06
64         8.93677e-06
72         8.10516e-06
80         7.3779e-06
88         6.86813e-06
96         6.32567e-06
104        5.69547e-06
112        5.20859e-06
120        4.73156e-06
128        4.74288e-06
136        4.68041e-06
144        4.35588e-06
152        4.01883e-06
160        3.84045e-06
168        3.47986e-06
176        3.24044e-06
184        3.25667e-06
192        3.39196e-06
200        3.45418e-06
208        3.21175e-06
216        2.98672e-06
224        2.75487e-06
232        2.48665e-06
240        2.35406e-06
248        2.38766e-06
256        2.54336e-06
264        2.54544e-06
272        2.53364e-06
280        2.56651e-06
288        2.52185e-06
296        2.3799e-06
304        2.1849e-06
312        2.13413e-06
320        2.14275e-06
328        2.10867e-06
336        2.08023e-06
344        2.06453e-06
352        2.0179e-06
360        1.91995e-06
368        1.78998e-06
376        1.68629e-06
384        1.65989e-06
392        1.63453e-06
400        1.57209e-06
408        1.54415e-06
416        1.60901e-06
424        1.65822e-06
432        1.63391e-06
440        1.55428e-06
448        1.40979e-06
456        1.3704e-06
464        1.39682e-06
472        1.4665e-06
480        1.52256e-06
488        1.55527e-06
496        1.47625e-06
504        1.3238e-06
512        1.2333e-06
520        1.21267e-06
528        1.20817e-06
536        1.20379e-06
544        1.2122e-06
552        1.23175e-06
560        1.22891e-06
568        1.18089e-06
576        1.14148e-06
584        1.15642e-06
592        1.25624e-06
600        1.34086e-06
608        1.3546e-06
616        1.25584e-06
624        1.14815e-06
632        1.16254e-06
640        1.18764e-06
648        1.19884e-06
656        1.17917e-06
664        1.13718e-06
672        1.11155e-06
680        1.10893e-06
688        1.05065e-06
696        1.023e-06 
704        1.05818e-06
712        1.03254e-06
720        1.03509e-06
728        1.06792e-06
736        1.05792e-06
744        1.06635e-06
752        1.10554e-06
760        1.08553e-06
768        1.07698e-06
776        1.07009e-06
784        1.03484e-06
792        1.00802e-06
800        9.87016e-07
808        1.00121e-06
816        1.00904e-06
824        1.01177e-06
832        9.65325e-07
840        9.47458e-07
848        9.68344e-07
856        9.78844e-07
864        9.69872e-07
872        9.36906e-07
880        9.50044e-07
888        9.74845e-07
896        9.75354e-07
904        9.56168e-07
912        9.1953e-07
920        8.93213e-07
928        8.74675e-07
936        8.97196e-07
944        9.49336e-07
952        9.45523e-07
960        9.28766e-07
968        9.23264e-07
976        9.64254e-07
984        1.31515e-06
992        1.68911e-06
1000       1.74554e-06
1008       1.72505e-06
1016       1.3612e-06
1024       9.86226e-07
1032       9.4102e-07
1040       9.44302e-07
1048       9.30261e-07
1056       9.03343e-07
1064       8.76059e-07
1072       8.35454e-07
1080       8.07152e-07
1088       7.97824e-07
1096       8.05723e-07
1104       8.39517e-07
1112       8.55011e-07
1120       8.41132e-07
1128       8.22967e-07
1136       7.77037e-07
1144       7.3596e-07
1152       7.45849e-07
1160       7.95317e-07
1168       8.77266e-07
1176       9.39631e-07
1184       9.17904e-07
1192       8.84561e-07
1200       8.78574e-07
1208       8.525e-07 
1216       8.32657e-07
1224       8.41382e-07
1232       8.87808e-07
1240       9.14937e-07
1248       9.02984e-07
1256       8.6028e-07
1264       7.97768e-07
1272       7.55807e-07
1280       7.4543e-07
1288       7.76216e-07
1296       8.17099e-07
1304       7.79733e-07
1312       7.62221e-07
1320       7.82482e-07
1328       7.88437e-07
1336       8.14722e-07
1344       8.07065e-07
1352       8.15884e-07
1360       8.00215e-07
1368       7.48617e-07
1376       7.39829e-07
1384       7.14945e-07
1392       7.04491e-07
1400       7.14518e-07
1408       7.01093e-07
1416       6.86009e-07
1424       6.80391e-07
1432       6.9452e-07
1440       7.02736e-07
1448       7.06298e-07
1456       7.06217e-07
1464       6.96041e-07
1472       6.86296e-07
1480       7.14885e-07
1488       7.57512e-07
1496       7.87228e-07
1504       8.23967e-07
1512       8.51929e-07
1520       8.63015e-07
1528       8.37107e-07
1536       8.16906e-07
1544       7.94139e-07
1552       7.63196e-07
1560       7.32574e-07
1568       7.44957e-07
1576       7.81371e-07
1584       7.68592e-07
1592       7.42459e-07
1600       7.03715e-07
1608       6.96498e-07
1616       6.78726e-07
1624       6.34216e-07
1632       6.12428e-07
1640       6.05848e-07
1648       6.52198e-07
1656       7.00441e-07
1664       7.50119e-07
1672       7.80465e-07
1680       7.84727e-07
1688       8.21835e-07
1696       8.4586e-07
1704       8.21998e-07
1712       8.03708e-07
1720       7.48801e-07
1728       6.70191e-07
1736       6.42737e-07
1744       6.60933e-07
1752       6.92071e-07
1760       7.1516e-07
1768       7.16859e-07
1776       6.74091e-07
1784       6.11525e-07
1792       5.83862e-07
1800       6.04166e-07
1808       6.68322e-07
1816       7.04565e-07
1824       7.06652e-07
1832       6.89744e-07
1840       7.22447e-07
1848       7.36647e-07
1856       7.09582e-07
1864       6.77603e-07
1872       6.31669e-07
1880       6.35441e-07
1888       6.41041e-07
1896       6.28531e-07
1904       6.28026e-07
1912       6.40006e-07
1920       6.67693e-07
1928       6.80747e-07
1936       6.75015e-07
1944       6.64377e-07
1952       6.50844e-07
1960       6.67767e-07
1968       7.34639e-07
1976       7.63581e-07
1984       7.42738e-07
1992       6.94554e-07
2000       6.4019e-07
2008       6.21738e-07
2016       6.26206e-07
2024       6.68296e-07
2032       7.07999e-07
2040       7.22541e-07
2048       7.47794e-07
2056       7.64846e-07
2064       7.52085e-07
2072       7.22562e-07
2080       6.93492e-07
2088       6.68233e-07
2096       6.60373e-07
2104       6.72509e-07
2112       7.17041e-07
2120       7.61635e-07
2128       7.72439e-07
2136       7.26159e-07
2144       6.2888e-07
2152       5.93168e-07
2160       6.42972e-07
2168       7.41506e-07
2176       7.90051e-07
2184       7.88883e-07
2192       7.76515e-07
2200       7.35423e-07
2208       7.06956e-07
2216       7.02267e-07
2224       7.26016e-07
2232       7.74639e-07
2240       7.87015e-07
2248       7.73212e-07
2256       7.49356e-07
2264       7.05043e-07
2272       6.7702e-07
2280       6.869e-07 
2288       7.22142e-07
2296       7.4992e-07
2304       7.2713e-07
2312       6.84889e-07
2320       6.75114e-07
2328       6.39112e-07
2336       6.04833e-07
2344       6.39583e-07
2352       6.8097e-07
2360       6.67489e-07
2368       6.48741e-07
2376       6.3992e-07
2384       6.44648e-07
2392       6.92734e-07
2400       7.13291e-07
2408       7.15024e-07
2416       7.39748e-07
2424       7.61752e-07
2432       7.45779e-07
2440       7.15675e-07
2448       6.60211e-07
2456       6.40575e-07
2464       6.59715e-07
2472       6.97438e-07
2480       7.76898e-07
2488       8.00789e-07
2496       7.87727e-07
2504       7.50972e-07
2512       6.99707e-07
2520       6.83737e-07
2528       6.87936e-07
2536       7.13693e-07
2544       6.98279e-07
2552       6.67109e-07
2560       6.45285e-07
2568       6.3552e-07
2576       6.47321e-07
2584       6.37816e-07
2592       6.18147e-07
2600       6.11088e-07
2608       6.34183e-07
2616       6.4371e-07
2624       6.52987e-07
2632       6.78399e-07
2640       6.93674e-07
2648       7.18632e-07
2656       7.36223e-07
2664       7.29999e-07
2672       7.08511e-07
2680       6.95047e-07
2688       6.92818e-07
2696       6.70327e-07
2704       6.43128e-07
2712       6.18451e-07
2720       6.18535e-07
2728       6.29738e-07
2736       6.15684e-07
2744       6.02866e-07
2752       5.97293e-07
2760       6.14361e-07
2768       6.49094e-07
2776       6.67023e-07
2784       6.59994e-07
2792       6.67961e-07
2800       7.00436e-07
2808       7.16429e-07
2816       7.36139e-07
2824       7.31835e-07
2832       6.93076e-07
2840       6.5975e-07
2848       6.50509e-07
2856       6.6176e-07
2864       6.85937e-07
2872       7.19784e-07
2880       7.59961e-07
2888       7.51533e-07
2896       7.36204e-07
2904       7.39809e-07
2912       7.37028e-07
2920       7.31641e-07
2928       7.17744e-07
2936       7.01503e-07
2944       7.13166e-07
2952       7.24806e-07
2960       7.30852e-07
2968       7.4506e-07
2976       7.75294e-07
2984       8.60471e-07
2992       9.29316e-07
3000       8.78154e-07
3008       8.27273e-07
3016       7.40406e-07
3024       6.63021e-07
3032       6.63285e-07
3040       6.89602e-07
3048       7.12267e-07
3056       7.20857e-07
3064       6.87908e-07
3072       6.41563e-07
3080       6.68939e-07
3088       7.21221e-07
3096       7.36221e-07
3104       7.30714e-07
3112       7.07525e-07
3120       6.31524e-07
3128       5.66153e-07
3136       5.54597e-07
3144       5.73753e-07
3152       6.13184e-07
3160       6.53859e-07
3168       6.62674e-07
3176       6.54563e-07
3184       6.29509e-07
3192       6.04239e-07
3200       5.89111e-07
3208       5.91522e-07
3216       6.13969e-07
3224       6.40925e-07
3232       6.87204e-07
3240       6.90073e-07
3248       6.45533e-07
3256       6.35506e-07
3264       6.70871e-07
3272       7.10524e-07
3280       7.31273e-07
3288       7.36319e-07
3296       7.18817e-07
3304       7.23608e-07
3312       7.36706e-07
3320       7.22149e-07
3328       7.10289e-07
3336       6.95508e-07
3344       7.08534e-07
3352       7.13297e-07
3360       6.74346e-07
3368       6.31407e-07
3376       6.27814e-07
3384       6.40167e-07
3392       6.4358e-07
3400       6.62555e-07
3408       6.54462e-07
3416       6.52304e-07
3424       6.96662e-07
3432       7.17328e-07
3440       7.15878e-07
3448       7.00711e-07
3456       6.90216e-07
3464       7.27552e-07
3472       7.37142e-07
3480       7.12336e-07
3488       6.91194e-07
3496       6.78075e-07
3504       6.45619e-07
3512       6.33142e-07
3520       6.36611e-07
3528       6.24002e-07
3536       6.13906e-07
3544       6.18667e-07
3552       6.42538e-07
3560       6.53615e-07
3568       6.566e-07 
3576       6.41698e-07
3584       6.13022e-07
3592       5.88485e-07
3600       5.97599e-07
3608       6.14916e-07
3616       6.54289e-07
3624       6.61009e-07
3632       6.49786e-07
3640       6.45243e-07
3648       6.48689e-07
3656       6.28323e-07
3664       5.9546e-07
3672       5.74689e-07
3680       5.72244e-07
3688       5.57946e-07
3696       5.46289e-07
3704       5.67916e-07
3712       6.09236e-07
3720       6.57779e-07
3728       6.87164e-07
3736       7.228e-07 
3744       7.51273e-07
3752       7.23835e-07
3760       6.93364e-07
3768       6.96227e-07
3776       7.24773e-07
3784       7.21831e-07
3792       6.82436e-07
3800       6.57747e-07
3808       6.42462e-07
3816       6.65085e-07
3824       6.85797e-07
3832       6.78672e-07
3840       6.9083e-07
3848       6.55411e-07
3856       6.05373e-07
3864       6.13075e-07
3872       6.32733e-07
3880       6.57015e-07
3888       6.5882e-07
3896       6.59503e-07
3904       6.69956e-07
3912       6.76138e-07
3920       6.72952e-07
3928       6.47853e-07
3936       6.32109e-07
3944       6.34222e-07
3952       6.39525e-07
3960       6.14755e-07
3968       5.48798e-07
3976       5.31468e-07
3984       6.05716e-07
3992       6.91692e-07
4000       7.32856e-07
4008       7.33078e-07
4016       6.88047e-07
4024       6.3649e-07
4032       6.02915e-07
4040       5.91368e-07
4048       6.23552e-07
4056       6.68416e-07
4064       6.82037e-07
4072       6.73284e-07
4080       6.50361e-07
4088       6.38124e-07
4096       6.28488e-07
4104       6.62219e-07
4112       6.98845e-07
4120       6.84018e-07
4128       6.65724e-07
4136       6.49248e-07
4144       6.24383e-07
4152       5.98094e-07
4160       5.84893e-07
4168       6.20141e-07
4176       6.4831e-07
4184       6.2298e-07
4192       6.03679e-07
4200       6.15926e-07
4208       6.20173e-07
4216       6.11811e-07
4224       6.11845e-07
4232       6.06703e-07
4240       6.09345e-07
4248       6.46974e-07
4256       6.97424e-07
4264       7.07523e-07
4272       6.81445e-07
4280       6.84479e-07
4288       6.85336e-07
4296       6.52768e-07
4304       6.03871e-07
4312       5.91441e-07
4320       6.06103e-07
4328       6.20983e-07
4336       6.3213e-07
4344       6.34491e-07
4352       6.45732e-07
4360       6.65533e-07
4368       6.75811e-07
4376       6.88143e-07
4384       7.2173e-07
4392       7.14694e-07
4400       6.71614e-07
4408       6.38151e-07
4416       6.26861e-07
4424       6.1841e-07
4432       6.09244e-07
4440       6.39023e-07
4448       6.70938e-07
4456       6.73371e-07
4464       6.70298e-07
4472       6.81895e-07
4480       6.7638e-07
4488       6.75582e-07
4496       6.80094e-07
4504       6.59796e-07
4512       6.66249e-07
4520       6.86435e-07
4528       6.80377e-07
4536       6.4469e-07
4544       6.11359e-07
4552       5.93658e-07
4560       6.17772e-07
4568       6.71576e-07
4576       6.77933e-07
4584       6.56882e-07
4592       6.44944e-07
4600       6.40119e-07
4608       6.43239e-07
4616       6.37887e-07
4624       6.42981e-07
4632       6.57475e-07
4640       6.63897e-07
4648       6.76159e-07
4656       6.61158e-07
4664       6.22461e-07
4672       6.35651e-07
4680       6.9686e-07
4688       7.54294e-07
4696       7.71273e-07
4704       7.39982e-07
4712       7.05743e-07
4720       6.94405e-07
4728       6.67424e-07
4736       6.06883e-07
4744       5.75502e-07
4752       6.04498e-07
4760       6.15294e-07
4768       6.17428e-07
4776       6.11198e-07
4784       6.06907e-07
4792       6.2897e-07
4800       6.87824e-07
4808       7.17746e-07
4816       6.89257e-07
4824       6.70681e-07
4832       6.87865e-07
4840       6.74506e-07
4848       6.73708e-07
4856       6.98144e-07
4864       7.05992e-07
4872       7.04722e-07
4880       6.76942e-07
4888       6.21594e-07
4896       5.79115e-07
4904       5.90266e-07
4912       6.49052e-07
4920       6.96711e-07
4928       7.2198e-07
4936       7.26637e-07
4944       6.98777e-07
4952       6.70015e-07
4960       6.65721e-07
4968       6.73322e-07
4976       6.67344e-07
4984       6.68965e-07
4992       6.77996e-07
5000       6.59017e-07
5008       6.43192e-07
5016       6.21096e-07
5024       5.94651e-07
5032       5.97593e-07
5040       6.50651e-07
5048       6.88868e-07
5056       6.87987e-07
5064       6.77098e-07
5072       6.68448e-07
5080       6.96086e-07
5088       7.02723e-07
5096       6.70826e-07
5104       6.5328e-07
5112       6.81404e-07
5120       7.27887e-07
5128       6.9396e-07
5136       6.21242e-07
5144       5.87509e-07
5152       5.83212e-07
5160       6.33211e-07
5168       6.79424e-07
5176       6.74088e-07
5184       6.58006e-07
5192       6.32783e-07
5200       6.26942e-07
5208       6.45701e-07
5216       6.71661e-07
5224       6.90627e-07
5232       6.91708e-07
5240       7.05029e-07
5248       7.16175e-07
5256       7.38227e-07
5264       7.35203e-07
5272       7.41117e-07
5280       7.40129e-07
5288       6.86199e-07
5296       6.17469e-07
5304       5.91399e-07
5312       6.19917e-07
5320       6.5226e-07
5328       6.78255e-07
5336       6.72708e-07
5344       6.79464e-07
5352       7.29449e-07
5360       7.54197e-07
5368       7.36983e-07
5376       7.21864e-07
5384       7.0172e-07
5392       6.813e-07 
5400       6.68764e-07
5408       6.92997e-07
5416       7.20378e-07
5424       7.22783e-07
5432       7.31416e-07
5440       7.32684e-07
5448       7.36362e-07
5456       7.70905e-07
5464       7.76935e-07
5472       7.40494e-07
5480       6.95855e-07
5488       6.63087e-07
5496       6.95964e-07
5504       7.19711e-07
5512       7.30418e-07
5520       7.47385e-07
5528       7.36349e-07
5536       7.23641e-07
5544       7.1457e-07
5552       7.14393e-07
5560       7.60425e-07
5568       7.85554e-07
5576       7.58387e-07
5584       7.29882e-07
5592       7.08422e-07
5600       7.11877e-07
5608       7.08989e-07
5616       6.8648e-07
5624       6.23365e-07
5632       5.80205e-07
5640       5.98921e-07
5648       6.41651e-07
5656       6.93027e-07
5664       7.41539e-07
5672       7.80387e-07
5680       7.93344e-07
5688       7.66959e-07
5696       7.39512e-07
5704       7.07255e-07
5712       6.65669e-07
5720       6.6371e-07
5728       7.06518e-07
5736       7.49367e-07
5744       7.62057e-07
5752       7.52824e-07
5760       7.46787e-07
5768       7.54713e-07
5776       7.83953e-07
5784       7.84223e-07
5792       7.57118e-07
5800       7.34907e-07
5808       6.96917e-07
5816       6.73349e-07
5824       6.68821e-07
5832       6.51568e-07
5840       6.69163e-07
5848       7.24668e-07
5856       7.58438e-07
5864       7.74085e-07
5872       7.54515e-07
5880       7.58574e-07
5888       7.6672e-07
5896       7.34479e-07
5904       7.34538e-07
5912       7.69919e-07
5920       8.28885e-07
5928       8.3718e-07
5936       8.26629e-07
5944       8.29671e-07
5952       8.12559e-07
5960       8.02979e-07
5968       8.01037e-07
5976       7.73428e-07
5984       7.27076e-07
5992       6.93164e-07
6000       7.05592e-07
6008       7.11855e-07
6016       7.21197e-07
6024       7.41319e-07
6032       7.65919e-07
6040       7.75378e-07
6048       7.38235e-07
6056       7.04315e-07
6064       7.3264e-07
6072       7.76478e-07
6080       8.06213e-07
6088       8.10345e-07
6096       7.99489e-07
6104       8.20646e-07
6112       8.15659e-07
6120       7.77779e-07
6128       7.77329e-07
6136       8.25842e-07
6144       8.5379e-07
6152       8.45887e-07
6160       7.91798e-07
6168       7.4155e-07
6176       7.10817e-07
6184       7.14618e-07
6192       7.46668e-07
6200       7.66664e-07
6208       7.57356e-07
6216       7.53441e-07
6224       7.58233e-07
6232       7.55616e-07
6240       7.62783e-07
6248       7.85607e-07
6256       7.94564e-07
6264       8.11372e-07
6272       8.21191e-07
6280       8.21932e-07
6288       8.53372e-07
6296       8.44632e-07
6304       7.90496e-07
6312       7.58489e-07
6320       7.39729e-07
6328       7.28228e-07
6336       7.12574e-07
6344       7.1855e-07
6352       7.61515e-07
6360       7.51578e-07
6368       7.22562e-07
6376       7.03807e-07
6384       7.09534e-07
6392       7.3175e-07
6400       7.28886e-07
6408       7.5406e-07
6416       7.76261e-07
6424       7.7379e-07
6432       7.34778e-07
6440       7.03459e-07
6448       7.15197e-07
6456       7.15707e-07
6464       6.96494e-07
6472       6.6054e-07
6480       6.3625e-07
6488       6.51828e-07
6496       7.04539e-07
6504       7.27675e-07
6512       7.52953e-07
6520       7.574e-07 
6528       7.31896e-07
6536       7.32636e-07
6544       7.68244e-07
6552       8.04969e-07
6560       8.05277e-07
6568       7.91098e-07
6576       7.4723e-07
6584       7.22571e-07
6592       7.15119e-07
6600       7.07079e-07
6608       6.87044e-07
6616       6.49318e-07
6624       6.66945e-07
6632       6.77361e-07
6640       6.7416e-07
6648       6.70686e-07
6656       6.50138e-07
6664       6.54931e-07
6672       6.46216e-07
6680       6.17359e-07
6688       5.96701e-07
6696       5.71433e-07
6704       5.94379e-07
6712       6.58718e-07
6720       7.07858e-07
6728       7.13828e-07
6736       7.04652e-07
6744       6.91196e-07
6752       7.0941e-07
6760       7.55563e-07
6768       7.78134e-07
6776       7.68671e-07
6784       7.39199e-07
6792       6.93696e-07
6800       6.64404e-07
6808       6.72364e-07
6816       6.76105e-07
6824       6.90371e-07
6832       6.93772e-07
6840       6.61047e-07
6848       6.56239e-07
6856       6.88881e-07
6864       7.32435e-07
6872       7.54197e-07
6880       7.36405e-07
6888       6.916e-07 
6896       6.56585e-07
6904       6.57669e-07
6912       6.69868e-07
6920       6.81548e-07
6928       6.7978e-07
6936       6.66352e-07
6944       6.69717e-07
6952       6.93875e-07
6960       7.03968e-07
6968       6.99111e-07
