# Freq.    Re    Im
0.999987   -0.592697  -0.00506855
1.00576    -0.593015  -0.00601098
1.01157    -0.593333  -0.00695444
1.01741    -0.593649  -0.00789892
1.02328    -0.593964  -0.00884442
1.02919    -0.594277  -0.00979094
1.03513    -0.594589  -0.0107385
1.0411     -0.5949    -0.011687 
1.04712    -0.595209  -0.0126366
1.05316    -0.595518  -0.0135872
1.05924    -0.595825  -0.014539 
1.06536    -0.596189  -0.0131632
1.07151    -0.59655   -0.0117858
1.07769    -0.596908  -0.0104068
1.08391    -0.597263  -0.00902621
1.09017    -0.597615  -0.00764401
1.09646    -0.597964  -0.00626024
1.10279    -0.59831   -0.00487489
1.10916    -0.598653  -0.00348797
1.11556    -0.598993  -0.00209948
1.122      -0.599329  -0.000709313
1.12848    -0.598526  -0.00140811
1.135      -0.597722  -0.00210503
1.14155    -0.596919  -0.00280007
1.14814    -0.596117  -0.00349325
1.15477    -0.595314  -0.00418457
1.16143    -0.594512  -0.00487402
1.16814    -0.59371   -0.00556161
1.17488    -0.592908  -0.00624735
1.18167    -0.592107  -0.00693123
1.18849    -0.591305  -0.00761322
1.19535    -0.591211  -0.00774004
1.20225    -0.591116  -0.00786682
1.20919    -0.591021  -0.00799356
1.21617    -0.590927  -0.00812026
1.22319    -0.590832  -0.00824691
1.23025    -0.590737  -0.00837353
1.23736    -0.590642  -0.00850011
1.2445     -0.590548  -0.00862664
1.25168    -0.590453  -0.00875313
1.25891    -0.590359  -0.00887963
1.26618    -0.590385  -0.00897548
1.27349    -0.590411  -0.00907133
1.28084    -0.590437  -0.0091672
1.28823    -0.590463  -0.00926307
1.29567    -0.590489  -0.00935895
1.30315    -0.590514  -0.00945483
1.31067    -0.59054   -0.00955073
1.31824    -0.590566  -0.00964664
1.32585    -0.590592  -0.00974255
1.3335     -0.590619  -0.00983849
1.3412     -0.590587  -0.00991312
1.34895    -0.590555  -0.00998773
1.35673    -0.590523  -0.0100623
1.36457    -0.590491  -0.0101369
1.37244    -0.590459  -0.0102115
1.38037    -0.590427  -0.0102861
1.38834    -0.590395  -0.0103607
1.39635    -0.590363  -0.0104353
1.40441    -0.590331  -0.0105098
1.41252    -0.5903    -0.0105843
1.42067    -0.590293  -0.0107449
1.42888    -0.590287  -0.0109056
1.43712    -0.59028   -0.0110662
1.44542    -0.590273  -0.0112269
1.45377    -0.590266  -0.0113875
1.46216    -0.590259  -0.0115481
1.4706     -0.590252  -0.0117088
1.47909    -0.590245  -0.0118694
1.48763    -0.590238  -0.01203  
1.49622    -0.590232  -0.0121908
1.50485    -0.590257  -0.0123182
1.51354    -0.590281  -0.0124456
1.52228    -0.590306  -0.0125731
1.53107    -0.59033   -0.0127005
1.53991    -0.590354  -0.0128279
1.5488     -0.590379  -0.0129554
1.55774    -0.590403  -0.0130829
1.56673    -0.590427  -0.0132104
1.57578    -0.590452  -0.0133379
1.58487    -0.590478  -0.0134656
1.59402    -0.590461  -0.0135827
1.60322    -0.590444  -0.0136998
1.61248    -0.590427  -0.0138169
1.62179    -0.59041   -0.013934 
1.63115    -0.590393  -0.0140511
1.64057    -0.590376  -0.0141682
1.65004    -0.590358  -0.0142852
1.65957    -0.590341  -0.0144023
1.66915    -0.590324  -0.0145194
1.67878    -0.590309  -0.0146364
1.68847    -0.590337  -0.0147654
1.69822    -0.590366  -0.0148944
1.70803    -0.590394  -0.0150234
1.71789    -0.590423  -0.0151524
1.7278     -0.590451  -0.0152815
1.73778    -0.59048   -0.0154105
1.74781    -0.590508  -0.0155396
1.7579     -0.590537  -0.0156686
1.76805    -0.590565  -0.0157977
1.77826    -0.590595  -0.0159267
1.78852    -0.590526  -0.0152607
1.79885    -0.590457  -0.0145948
1.80923    -0.590387  -0.0139291
1.81968    -0.590317  -0.0132636
1.83018    -0.590246  -0.0125983
1.84075    -0.590174  -0.0119332
1.85137    -0.590101  -0.0112682
1.86206    -0.590027  -0.0106034
1.87281    -0.589953  -0.00993876
1.88362    -0.589879  -0.00927449
1.8945     -0.589892  -0.0102181
1.90544    -0.589904  -0.0111617
1.91644    -0.589914  -0.0121054
1.9275     -0.589923  -0.0130492
1.93863    -0.58993   -0.013993 
1.94982    -0.589935  -0.0149369
1.96108    -0.589939  -0.0158808
1.9724     -0.589942  -0.0168248
1.98378    -0.589943  -0.0177688
1.99524    -0.589944  -0.018713 
2.00675    -0.589953  -0.0188383
2.01834    -0.589962  -0.0189637
2.02999    -0.589971  -0.019089 
2.04171    -0.58998   -0.0192144
2.0535     -0.589988  -0.0193397
2.06535    -0.589997  -0.0194651
2.07728    -0.590006  -0.0195905
2.08927    -0.590015  -0.0197158
2.10133    -0.590024  -0.0198412
2.11346    -0.590034  -0.0199667
2.12566    -0.590064  -0.0201466
2.13793    -0.590095  -0.0203265
2.15028    -0.590125  -0.0205065
2.16269    -0.590156  -0.0206864
2.17518    -0.590186  -0.0208664
2.18773    -0.590216  -0.0210464
2.20036    -0.590246  -0.0212265
2.21307    -0.590276  -0.0214065
2.22584    -0.590306  -0.0215866
2.23869    -0.590337  -0.0217666
2.25162    -0.590328  -0.0219095
2.26461    -0.590319  -0.0220525
2.27769    -0.590309  -0.0221953
2.29084    -0.590299  -0.0223383
2.30406    -0.59029   -0.0224811
2.31736    -0.590281  -0.022624 
2.33074    -0.590271  -0.0227669
2.3442     -0.590262  -0.0229098
2.35773    -0.590252  -0.0230527
2.37134    -0.590244  -0.0231955
2.38503    -0.590224  -0.0233288
2.3988     -0.590205  -0.0234621
2.41265    -0.590186  -0.0235954
2.42658    -0.590167  -0.0237286
2.44059    -0.590147  -0.0238619
2.45468    -0.590128  -0.0239951
2.46885    -0.590109  -0.0241283
2.4831     -0.590089  -0.0242616
2.49744    -0.59007   -0.0243948
2.51185    -0.590051  -0.024528 
2.52635    -0.590059  -0.0248957
2.54094    -0.590066  -0.0252634
2.55561    -0.590074  -0.0256312
2.57036    -0.590081  -0.0259989
2.5852     -0.590087  -0.0263667
2.60013    -0.590094  -0.0267345
2.61514    -0.590101  -0.0271023
2.63023    -0.590107  -0.0274701
2.64542    -0.590113  -0.027838 
2.66069    -0.59012   -0.0282057
2.67605    -0.59009   -0.0282169
2.6915     -0.590061  -0.0282281
2.70704    -0.590031  -0.0282393
2.72267    -0.590002  -0.0282505
2.73838    -0.589972  -0.0282617
2.75419    -0.589943  -0.0282729
2.77009    -0.589914  -0.0282841
2.78608    -0.589885  -0.0282953
2.80217    -0.589855  -0.0283065
2.81835    -0.589827  -0.0283179
2.83462    -0.589903  -0.0284885
2.85098    -0.589979  -0.0286591
2.86744    -0.590055  -0.0288298
2.88399    -0.590131  -0.0290005
2.90064    -0.590207  -0.0291713
2.91739    -0.590283  -0.0293421
2.93423    -0.590359  -0.029513 
2.95117    -0.590435  -0.0296839
2.96821    -0.590511  -0.0298549
2.98534    -0.590588  -0.0300258
3.00258    -0.59053   -0.0302522
3.01991    -0.590472  -0.0304786
3.03735    -0.590414  -0.0307049
3.05488    -0.590356  -0.0309312
3.07252    -0.590298  -0.0311574
3.09025    -0.59024   -0.0313836
3.10809    -0.590182  -0.0316097
3.12604    -0.590123  -0.0318358
3.14408    -0.590065  -0.0320619
3.16224    -0.590008  -0.0322882
3.18049    -0.590027  -0.0325491
3.19885    -0.590047  -0.0328102
3.21732    -0.590067  -0.0330712
3.23589    -0.590086  -0.0333323
3.25457    -0.590106  -0.0335933
3.27336    -0.590125  -0.0338545
3.29226    -0.590144  -0.0341156
3.31127    -0.590163  -0.0343767
3.33038    -0.590182  -0.0346379
3.34961    -0.590201  -0.0348991
3.36895    -0.590201  -0.0351438
3.3884     -0.590201  -0.0353885
3.40796    -0.590201  -0.0356333
3.42763    -0.590201  -0.0358779
3.44742    -0.590201  -0.0361227
3.46732    -0.5902    -0.0363674
3.48734    -0.5902    -0.0366121
3.50747    -0.590199  -0.0368569
3.52772    -0.590198  -0.0371016
3.54809    -0.590198  -0.0373464
3.56857    -0.590198  -0.037485 
3.58917    -0.590197  -0.0376236
3.60989    -0.590197  -0.0377622
3.63073    -0.590197  -0.0379008
3.65169    -0.590196  -0.0380394
3.67277    -0.590195  -0.038178 
3.69398    -0.590195  -0.0383166
3.7153     -0.590194  -0.0384552
3.73675    -0.590193  -0.0385938
3.75832    -0.590193  -0.0387324
3.78002    -0.590168  -0.0389932
3.80184    -0.590142  -0.039254 
3.82379    -0.590117  -0.0395148
3.84587    -0.590091  -0.0397756
3.86807    -0.590065  -0.0400364
3.8904     -0.590039  -0.0402972
3.91286    -0.590013  -0.0405579
3.93545    -0.589986  -0.0408187
3.95817    -0.58996   -0.0410794
3.98102    -0.589935  -0.0413403
4.004      -0.589958  -0.0415311
4.02712    -0.589981  -0.0417218
4.05037    -0.590004  -0.0419126
4.07375    -0.590027  -0.0421034
4.09727    -0.59005   -0.0422942
4.12092    -0.590073  -0.042485 
4.14471    -0.590096  -0.0426758
4.16864    -0.590118  -0.0428667
4.1927     -0.590141  -0.0430575
4.21691    -0.590165  -0.0432485
4.24125    -0.590182  -0.043621 
4.26574    -0.590199  -0.0439936
4.29036    -0.590215  -0.0443663
4.31513    -0.590232  -0.0447389
4.34004    -0.590248  -0.0451117
4.3651     -0.590264  -0.0454844
4.3903     -0.590279  -0.0458572
4.41564    -0.590295  -0.04623  
4.44114    -0.59031   -0.0466029
4.46678    -0.590325  -0.0469757
4.49256    -0.590402  -0.0473097
4.5185     -0.590479  -0.0476438
4.54458    -0.590556  -0.047978 
4.57082    -0.590633  -0.0483123
4.59721    -0.590709  -0.0486466
4.62375    -0.590786  -0.0489811
4.65044    -0.590862  -0.0493157
4.67729    -0.590938  -0.0496504
4.70429    -0.591014  -0.0499852
4.73145    -0.591089  -0.0503201
4.75876    -0.59106   -0.0505359
4.78624    -0.59103   -0.0507517
4.81387    -0.591001  -0.0509675
4.84166    -0.590971  -0.0511833
4.86961    -0.590941  -0.0513991
4.89772    -0.590911  -0.0516148
4.926      -0.590881  -0.0518306
4.95443    -0.590851  -0.0520463
4.98304    -0.590821  -0.052262 
5.0118     -0.590793  -0.0524777
5.04074    -0.590776  -0.052765 
5.06984    -0.590759  -0.0530523
5.09911    -0.590742  -0.0533396
5.12854    -0.590725  -0.0536269
5.15815    -0.590707  -0.0539142
5.18793    -0.59069   -0.0542015
5.21788    -0.590673  -0.0544888
5.248      -0.590655  -0.054776 
5.2783     -0.590637  -0.0550633
5.30877    -0.590619  -0.0553505
5.33942    -0.590663  -0.0557714
5.37025    -0.590707  -0.0561923
5.40125    -0.59075   -0.0566133
5.43243    -0.590793  -0.0570344
5.46379    -0.590836  -0.0574556
5.49533    -0.590879  -0.0578768
5.52706    -0.590921  -0.0582982
5.55897    -0.590963  -0.0587196
5.59106    -0.591005  -0.0591411
5.62334    -0.591046  -0.0595629
5.6558     -0.591058  -0.0599022
5.68845    -0.591071  -0.0602415
5.72129    -0.591082  -0.0605808
5.75432    -0.591094  -0.0609201
5.78754    -0.591106  -0.0612595
5.82095    -0.591117  -0.0615989
5.85456    -0.591129  -0.0619384
5.88836    -0.59114   -0.0622779
5.92235    -0.59115   -0.0626174
5.95654    -0.591161  -0.062957 
5.99093    -0.591172  -0.0632967
6.02551    -0.591174  -0.0637027
6.0603     -0.591175  -0.0641088
6.09529    -0.591175  -0.0645149
6.13047    -0.591175  -0.0649211
6.16587    -0.591175  -0.0653273
6.20146    -0.591175  -0.0657335
6.23726    -0.591175  -0.0661397
6.27327    -0.591174  -0.066546 
6.30949    -0.591173  -0.0669523
6.34591    -0.591172  -0.0673585
6.38255    -0.591194  -0.0677579
6.41939    -0.591216  -0.0681574
6.45645    -0.591238  -0.0685569
6.49373    -0.591259  -0.0689565
6.53122    -0.591281  -0.0693561
6.56892    -0.591302  -0.0697558
6.60684    -0.591323  -0.0701555
6.64499    -0.591343  -0.0705553
6.68335    -0.591363  -0.0709552
6.72193    -0.591383  -0.0713551
6.76074    -0.591483  -0.0718196
6.79977    -0.591582  -0.0722842
6.83902    -0.591681  -0.072749 
6.87851    -0.59178   -0.073214 
6.91822    -0.591878  -0.0736793
6.95815    -0.591977  -0.0741447
6.99832    -0.592074  -0.0746103
7.03873    -0.592171  -0.0750761
7.07936    -0.592269  -0.0755421
7.12023    -0.592365  -0.0760082
7.16134    -0.592364  -0.0764656
7.20268    -0.592363  -0.0769231
7.24426    -0.592361  -0.0773807
7.28608    -0.592359  -0.0778383
7.32815    -0.592356  -0.0782959
7.37045    -0.592354  -0.0787536
7.413      -0.592351  -0.0792113
7.4558     -0.592347  -0.0796691
7.49884    -0.592344  -0.0801269
7.54213    -0.592339  -0.0805848
7.58567    -0.592259  -0.0809914
7.62946    -0.592179  -0.081398 
7.67351    -0.592099  -0.0818045
7.71781    -0.592019  -0.0822109
7.76236    -0.591938  -0.0826172
7.80718    -0.591857  -0.0830235
7.85225    -0.591775  -0.0834297
7.89758    -0.591694  -0.0838358
7.94317    -0.591612  -0.0842419
7.98903    -0.59153   -0.0846476
8.03515    -0.591601  -0.0851238
8.08154    -0.591673  -0.0856002
8.12819    -0.591744  -0.0860767
8.17512    -0.591814  -0.0865535
8.22231    -0.591884  -0.0870304
8.26978    -0.591954  -0.0875074
8.31752    -0.592024  -0.0879846
8.36554    -0.592093  -0.088462 
8.41384    -0.592162  -0.0889395
8.46241    -0.59223   -0.0894174
8.51126    -0.59221   -0.0900533
8.5604     -0.592189  -0.0906894
8.60982    -0.592167  -0.0913254
8.65952    -0.592145  -0.0919615
8.70952    -0.592122  -0.0925977
8.7598     -0.592099  -0.0932339
8.81037    -0.592074  -0.0938701
8.86123    -0.59205   -0.0945065
8.91239    -0.592024  -0.0951429
8.96384    -0.591998  -0.0957792
9.01559    -0.592081  -0.096382 
9.06763    -0.592163  -0.0969852
9.11998    -0.592244  -0.0975885
9.17263    -0.592325  -0.0981921
9.22559    -0.592405  -0.098796 
9.27885    -0.592485  -0.0994002
9.33241    -0.592564  -0.100004 
9.38629    -0.592642  -0.100609 
9.44048    -0.59272   -0.101214 
9.49498    -0.592797  -0.101819 
9.54979    -0.592773  -0.102532 
9.60493    -0.592748  -0.103245 
9.66038    -0.592722  -0.103957 
9.71615    -0.592695  -0.10467  
9.77224    -0.592668  -0.105384 
9.82865    -0.59264   -0.106097 
9.88539    -0.592611  -0.10681  
9.94246    -0.59258   -0.107523 
9.99986    -0.59255   -0.108236 
10.0576    -0.592518  -0.10895  
10.1157    -0.592079  -0.109506 
10.1741    -0.591638  -0.110061 
10.2328    -0.591198  -0.110615 
10.2919    -0.590757  -0.111168 
10.3513    -0.590316  -0.111721 
10.411     -0.589874  -0.112272 
10.4711    -0.589432  -0.112824 
10.5316    -0.58899   -0.113374 
10.5924    -0.588547  -0.113923 
10.6535    -0.588106  -0.114473 
10.715     -0.588596  -0.115026 
10.7769    -0.589086  -0.11558  
10.8391    -0.589576  -0.116134 
10.9017    -0.590067  -0.11669  
10.9646    -0.590557  -0.117247 
11.0279    -0.591047  -0.117804 
11.0916    -0.591537  -0.118363 
11.1556    -0.592028  -0.118922 
11.22      -0.592518  -0.119482 
11.2848    -0.593009  -0.120043 
11.35      -0.593499  -0.120606 
11.4155    -0.593411  -0.121376 
11.4814    -0.593321  -0.122146 
11.5477    -0.593231  -0.122917 
11.6143    -0.59314   -0.123687 
11.6814    -0.593047  -0.124458 
11.7488    -0.592954  -0.125228 
11.8166    -0.592859  -0.125998 
11.8849    -0.592764  -0.126769 
11.9535    -0.592668  -0.127539 
12.0225    -0.592569  -0.128309 
12.0919    -0.592629  -0.129135 
12.1617    -0.592687  -0.129963 
12.2319    -0.592745  -0.13079  
12.3025    -0.592801  -0.131618 
12.3735    -0.592856  -0.132446 
12.445     -0.59291   -0.133274 
12.5168    -0.592963  -0.134103 
12.5891    -0.593015  -0.134933 
12.6618    -0.593066  -0.135763 
12.7349    -0.593116  -0.136593 
12.8084    -0.593125  -0.137279 
12.8823    -0.593134  -0.137966 
12.9567    -0.593142  -0.138653 
13.0315    -0.59315   -0.13934  
13.1067    -0.593157  -0.140028 
13.1824    -0.593163  -0.140715 
13.2585    -0.593168  -0.141403 
13.335     -0.593172  -0.142091 
13.412     -0.593176  -0.14278  
13.4894    -0.593178  -0.143468 
13.5673    -0.593306  -0.144284 
13.6456    -0.593433  -0.145101 
13.7244    -0.593559  -0.145919 
13.8037    -0.593684  -0.146737 
13.8833    -0.593808  -0.147556 
13.9635    -0.593931  -0.148375 
14.0441    -0.594053  -0.149195 
14.1252    -0.594175  -0.150016 
14.2067    -0.594295  -0.150837 
14.2887    -0.594415  -0.151659 
14.3712    -0.594298  -0.152484 
14.4542    -0.594181  -0.15331  
14.5376    -0.594063  -0.154136 
14.6216    -0.593944  -0.154961 
14.706     -0.593823  -0.155787 
14.7909    -0.593701  -0.156612 
14.8763    -0.593579  -0.157438 
14.9621    -0.593454  -0.158263 
15.0485    -0.593329  -0.159088 
15.1354    -0.593203  -0.159914 
15.2228    -0.593412  -0.160986 
15.3107    -0.593619  -0.16206  
15.3991    -0.593824  -0.163134 
15.4879    -0.594027  -0.16421  
15.5774    -0.594229  -0.165287 
15.6673    -0.59443   -0.166365 
15.7577    -0.594629  -0.167444 
15.8487    -0.594826  -0.168524 
15.9402    -0.595022  -0.169606 
16.0322    -0.595216  -0.170688 
16.1248    -0.595153  -0.171544 
16.2179    -0.595089  -0.1724   
16.3115    -0.595023  -0.173256 
16.4057    -0.594956  -0.174112 
16.5004    -0.594888  -0.174968 
16.5956    -0.594819  -0.175825 
16.6914    -0.594748  -0.176681 
16.7878    -0.594677  -0.177538 
16.8847    -0.594604  -0.178395 
16.9822    -0.59453   -0.179252 
17.0802    -0.594577  -0.180399 
17.1788    -0.594622  -0.181548 
17.278     -0.594665  -0.182697 
17.3778    -0.594706  -0.183847 
17.4781    -0.594745  -0.184998 
17.579     -0.594782  -0.186149 
17.6805    -0.594817  -0.187302 
17.7825    -0.594851  -0.188455 
17.8852    -0.594882  -0.189609 
17.9885    -0.594911  -0.190764 
18.0923    -0.594975  -0.191626 
18.1968    -0.595038  -0.192489 
18.3018    -0.595099  -0.193352 
18.4075    -0.59516   -0.194216 
18.5137    -0.595219  -0.195081 
18.6206    -0.595277  -0.195946 
18.7281    -0.595335  -0.196812 
18.8362    -0.595391  -0.197678 
18.945     -0.595446  -0.198544 
19.0543    -0.595499  -0.199411 
19.1643    -0.595531  -0.200769 
19.275     -0.59556   -0.202128 
19.3863    -0.595586  -0.203488 
19.4982    -0.59561   -0.20485  
19.6107    -0.59563   -0.206212 
19.7239    -0.595648  -0.207575 
19.8378    -0.595664  -0.20894  
19.9523    -0.595676  -0.210305 
20.0675    -0.595685  -0.211671 
20.1834    -0.595692  -0.213039 
20.2999    -0.595582  -0.214251 
20.4171    -0.595471  -0.215463 
20.535     -0.595357  -0.216676 
20.6535    -0.59524   -0.21789  
20.7727    -0.595122  -0.219103 
20.8927    -0.595001  -0.220317 
21.0133    -0.594878  -0.221531 
21.1346    -0.594752  -0.222746 
21.2566    -0.594624  -0.223961 
21.3793    -0.594494  -0.225177 
21.5027    -0.594492  -0.226446 
21.6269    -0.594487  -0.227716 
21.7517    -0.594479  -0.228987 
21.8773    -0.594469  -0.230259 
22.0036    -0.594457  -0.231531 
22.1306    -0.594443  -0.232805 
22.2584    -0.594426  -0.234079 
22.3869    -0.594407  -0.235355 
22.5161    -0.594385  -0.236631 
22.6461    -0.594362  -0.237908 
22.7769    -0.594416  -0.239286 
22.9084    -0.594467  -0.240664 
23.0406    -0.594516  -0.242044 
23.1736    -0.594562  -0.243425 
23.3074    -0.594605  -0.244807 
23.442     -0.594646  -0.246191 
23.5773    -0.594684  -0.247576 
23.7134    -0.594719  -0.248962 
23.8503    -0.594751  -0.25035  
23.988     -0.594781  -0.251738 
24.1265    -0.594925  -0.253256 
24.2658    -0.595065  -0.254775 
24.4058    -0.595203  -0.256297 
24.5467    -0.595337  -0.257821 
24.6885    -0.595469  -0.259346 
24.831     -0.595598  -0.260874 
24.9743    -0.595723  -0.262403 
25.1185    -0.595846  -0.263935 
25.2635    -0.595965  -0.265468 
25.4094    -0.596082  -0.267004 
25.5561    -0.596002  -0.268431 
25.7036    -0.595919  -0.269859 
25.852     -0.595832  -0.271288 
26.0012    -0.595743  -0.272717 
26.1513    -0.595651  -0.274148 
26.3023    -0.595555  -0.275579 
26.4542    -0.595457  -0.277012 
26.6069    -0.595356  -0.278445 
26.7605    -0.595251  -0.27988  
26.915     -0.595144  -0.281315 
27.0703    -0.595273  -0.282885 
27.2266    -0.595399  -0.284457 
27.3838    -0.595522  -0.286032 
27.5419    -0.595642  -0.287609 
27.7009    -0.595758  -0.289187 
27.8608    -0.595872  -0.290768 
28.0217    -0.595982  -0.292351 
28.1834    -0.596089  -0.293936 
28.3461    -0.596193  -0.295524 
28.5098    -0.596294  -0.297113 
28.6744    -0.596392  -0.298704 
28.8399    -0.596233  -0.300554 
29.0064    -0.596069  -0.302406 
29.1739    -0.5959    -0.304259 
29.3423    -0.595726  -0.306113 
29.5117    -0.595547  -0.30797  
29.682     -0.595363  -0.309827 
29.8534    -0.595174  -0.311686 
30.0257    -0.59498   -0.313546 
30.1991    -0.594781  -0.315408 
30.3734    -0.594577  -0.317271 
30.5488    -0.594368  -0.319136 
30.7251    -0.594404  -0.320858 
30.9025    -0.594437  -0.322583 
31.0809    -0.594466  -0.32431  
31.2603    -0.594491  -0.32604  
31.4408    -0.594512  -0.327771 
31.6223    -0.594529  -0.329505 
31.8049    -0.594543  -0.331241 
31.9885    -0.594553  -0.332979 
32.1732    -0.594559  -0.33472  
