# Freq.    Re    Im
0.999987   -19.3809   -0.803286 
1.01448    -19.3961   -0.804521 
1.02919    -19.4114   -0.805758 
1.04411    -19.4267   -0.806996 
1.05924    -19.442    -0.808236 
1.07459    -19.4574   -0.809482 
1.09017    -19.4368   -0.812563 
1.10597    -19.4164   -0.815637 
1.122      -19.3959   -0.818703 
1.13827    -19.3754   -0.821762 
1.15477    -19.355    -0.824814 
1.17151    -19.3502   -0.857389 
1.18849    -19.3454   -0.88995  
1.20571    -19.3405   -0.922498 
1.22319    -19.3356   -0.955032 
1.24092    -19.3306   -0.987547 
1.25891    -19.2917   -0.962612 
1.27716    -19.2528   -0.937775 
1.29567    -19.214    -0.913036 
1.31445    -19.1753   -0.888393 
1.3335     -19.1366   -0.863847 
1.35283    -19.1736   -0.911126 
1.37244    -19.2106   -0.958589 
1.39234    -19.2475   -1.00624  
1.41252    -19.2844   -1.05407  
1.43299    -19.3213   -1.10209  
1.45377    -19.2971   -1.08665  
1.47484    -19.273    -1.07126  
1.49622    -19.2489   -1.0559   
1.5179     -19.2249   -1.04057  
1.53991    -19.2008   -1.02529  
1.56223    -19.1879   -1.0682   
1.58487    -19.1749   -1.11104  
1.60785    -19.1618   -1.15384  
1.63115    -19.1486   -1.19658  
1.6548     -19.1353   -1.23926  
1.67878    -19.1697   -1.27872  
1.70312    -19.2041   -1.31833  
1.7278     -19.2385   -1.35808  
1.75285    -19.2728   -1.39798  
1.77826    -19.3072   -1.43802  
1.80403    -19.2988   -1.45421  
1.83018    -19.2904   -1.47039  
1.85671    -19.282    -1.48655  
1.88362    -19.2736   -1.50271  
1.91093    -19.2652   -1.51885  
1.93863    -19.2199   -1.54724  
1.96673    -19.1745   -1.5755   
1.99524    -19.1293   -1.60362  
2.02416    -19.0841   -1.63159  
2.0535     -19.0389   -1.65944  
2.08326    -19.094    -1.69096  
2.11346    -19.1491   -1.72266  
2.1441     -19.2044   -1.75452  
2.17518    -19.2599   -1.78656  
2.20671    -19.3154   -1.81878  
2.23869    -19.234    -1.88802  
2.27114    -19.1526   -1.95667  
2.30406    -19.0713   -2.02474  
2.33746    -18.99     -2.09222  
2.37134    -18.9087   -2.15912  
2.40572    -18.9507   -2.14635  
2.44059    -18.9927   -2.1335   
2.47596    -19.0347   -2.12059  
2.51185    -19.0769   -2.10762  
2.54826    -19.1191   -2.09458  
2.5852     -19.1257   -2.13998  
2.62267    -19.1321   -2.18543  
2.66069    -19.1385   -2.23091  
2.69926    -19.1447   -2.27644  
2.73838    -19.1509   -2.32201  
2.77808    -19.1377   -2.3554   
2.81835    -19.1246   -2.38876  
2.8592     -19.1113   -2.42207  
2.90064    -19.0981   -2.45535  
2.94269    -19.0847   -2.48859  
2.98534    -19.0687   -2.51637  
3.02862    -19.0527   -2.5441   
3.07252    -19.0366   -2.57179  
3.11705    -19.0205   -2.59944  
3.16224    -19.0043   -2.62706  
3.20807    -19.0775   -2.69576  
3.25458    -19.1508   -2.76498  
3.30175    -19.2242   -2.83471  
3.34961    -19.2977   -2.90497  
3.39816    -19.3712   -2.97574  
3.44742    -19.336    -3.00457  
3.49739    -19.3008   -3.03328  
3.54809    -19.2656   -3.06189  
3.59952    -19.2304   -3.0904   
3.65169    -19.1952   -3.11879  
3.70463    -19.1407   -3.27168  
3.75833    -19.0851   -3.42389  
3.8128     -19.0283   -3.57541  
3.86807    -18.9703   -3.72624  
3.92414    -18.9111   -3.87636  
3.98102    -19.0221   -3.80729  
4.03873    -19.1333   -3.73737  
4.09727    -19.2447   -3.66659  
4.15666    -19.3563   -3.59494  
4.21691    -19.4682   -3.52243  
4.27804    -19.3487   -3.5844   
4.34005    -19.2296   -3.64554  
4.40296    -19.1108   -3.70585  
4.46678    -18.9925   -3.76535  
4.53153    -18.8745   -3.82403  
4.59721    -18.9      -3.88831  
4.66385    -18.9254   -3.95279  
4.73145    -18.9507   -4.01747  
4.80004    -18.9758   -4.08236  
4.86961    -19.0007   -4.14745  
4.9402     -18.9776   -4.21094  
5.01181    -18.9542   -4.27433  
5.08446    -18.9306   -4.33762  
5.15816    -18.9068   -4.40078  
5.23292    -18.8828   -4.46384  
5.30878    -18.921    -4.53566  
5.38573    -18.9591   -4.60779  
5.4638     -18.997    -4.68024  
5.54299    -19.0349   -4.75302  
5.62334    -19.0726   -4.8261   
5.70485    -19.0455   -4.83871  
5.78755    -19.0185   -4.85127  
5.87144    -18.9914   -4.86379  
5.95654    -18.9644   -4.87628  
6.04289    -18.9374   -4.88872  
6.13048    -18.9145   -4.99504  
6.21934    -18.8911   -5.10125  
6.30949    -18.867    -5.20736  
6.40095    -18.8423   -5.31335  
6.49373    -18.817    -5.41923  
6.58786    -18.841    -5.46982  
6.68335    -18.8649   -5.52056  
6.78023    -18.8888   -5.57144  
6.87851    -18.9126   -5.62248  
6.97822    -18.9363   -5.67365  
7.07937    -18.8349   -5.82935  
7.18198    -18.7323   -5.98373  
7.28609    -18.6286   -6.13676  
7.3917     -18.5238   -6.28846  
7.49885    -18.4179   -6.43881  
7.60754    -18.4155   -6.48309  
7.71782    -18.413    -6.5274   
7.82969    -18.4104   -6.57172  
7.94318    -18.4077   -6.61607  
8.05832    -18.4049   -6.66044  
8.17513    -18.4169   -6.72014  
8.29363    -18.4287   -6.77996  
8.41384    -18.4404   -6.83993  
8.5358     -18.452    -6.90001  
8.65953    -18.4634   -6.96022  
8.78505    -18.4342   -7.15412  
8.91239    -18.4032   -7.34815  
9.04158    -18.3702   -7.54227  
9.17264    -18.3352   -7.73648  
9.3056     -18.2982   -7.93076  
9.44049    -18.1932   -7.98876  
9.57733    -18.0883   -8.04606  
9.71615    -17.9836   -8.10264  
9.85699    -17.8789   -8.15851  
9.99987    -17.7743   -8.2137   
10.1448    -17.7497   -8.24694  
10.2919    -17.7249   -8.28013  
10.4411    -17.7002   -8.31324  
10.5924    -17.6753   -8.3463   
10.7459    -17.6504   -8.37927  
10.9017    -17.522    -8.63697  
11.0597    -17.3899   -8.8927   
11.22      -17.2541   -9.14642  
11.3827    -17.1145   -9.39806  
11.5477    -16.9713   -9.64757  
11.7151    -17.0371   -9.79337  
11.8849    -17.1027   -9.94046  
12.0571    -17.1679   -10.0888  
12.2319    -17.2329   -10.2385  
12.4092    -17.2976   -10.3895  
12.5891    -17.2129   -10.4837  
12.7716    -17.1278   -10.5773  
12.9567    -17.0422   -10.6703  
13.1445    -16.9561   -10.7626  
13.335     -16.8695   -10.8543  
13.5283    -16.7055   -10.9415  
13.7244    -16.5414   -11.027   
13.9234    -16.3774   -11.1109  
14.1252    -16.2135   -11.193   
14.3299    -16.0497   -11.2734  
14.5377    -16.0075   -11.3618  
14.7484    -15.9648   -11.45    
14.9622    -15.9216   -11.5381  
15.179     -15.8779   -11.6261  
15.3991    -15.8338   -11.7139  
15.6223    -15.7003   -11.9204  
15.8487    -15.5641   -12.1254  
16.0785    -15.4252   -12.3289  
16.3115    -15.2837   -12.5309  
16.548     -15.1395   -12.7312  
16.7878    -15.1478   -12.8631  
17.0312    -15.1555   -12.9956  
17.278     -15.1626   -13.1289  
17.5285    -15.1691   -13.2627  
17.7826    -15.175    -13.3972  
18.0403    -14.9911   -13.612   
18.3018    -14.8042   -13.8243  
18.5671    -14.6143   -14.034   
18.8362    -14.4214   -14.241   
19.1093    -14.2256   -14.4455  
19.3863    -14.1303   -14.5069  
19.6673    -14.0348   -14.5676  
19.9524    -13.939    -14.6278  
20.2416    -13.843    -14.6875  
20.535     -13.7468   -14.7464  
20.8326    -13.5497   -14.9618  
21.1346    -13.3493   -15.1746  
21.441     -13.1456   -15.3848  
21.7518    -12.9385   -15.5922  
22.0671    -12.7283   -15.7969  
22.3869    -12.6073   -15.9447  
22.7114    -12.4848   -16.0917  
23.0406    -12.3606   -16.2378  
23.3746    -12.2348   -16.3831  
23.7134    -12.1075   -16.5275  
24.0572    -11.8525   -16.6525  
24.4059    -11.5964   -16.7738  
24.7596    -11.3393   -16.8912  
25.1185    -11.0812   -17.0049  
25.4826    -10.8222   -17.1148  
25.852     -10.6014   -17.3102  
26.2267    -10.3774   -17.5028  
26.6069    -10.15     -17.6927  
26.9926    -9.91942   -17.8798  
27.3838    -9.68558   -18.064   
27.7808    -9.61589   -18.2413  
28.1835    -9.54453   -18.4191  
28.592     -9.47148   -18.5976  
29.0064    -9.39673   -18.7766  
29.4269    -9.32027   -18.9561  
29.8534    -8.99359   -19.044   
30.2862    -8.66653   -19.1266  
30.7252    -8.33918   -19.2037  
31.1705    -8.01164   -19.2755  
31.6224    -7.68396   -19.3419  
32.0807    -7.441     -19.4256  
32.5458    -7.19715   -19.5062  
33.0175    -6.95245   -19.5837  
33.4961    -6.70693   -19.6582  
33.9816    -6.46064   -19.7297  
34.4742    -6.14532   -19.8904  
34.9739    -5.82646   -20.0463  
35.4809    -5.50413   -20.1972  
35.9952    -5.17842   -20.343   
36.5169    -4.84939   -20.4837  
37.0463    -4.53926   -20.5297  
37.5833    -4.22885   -20.5709  
38.128     -3.91821   -20.6076  
38.6807    -3.60743   -20.6395  
39.2414    -3.29657   -20.6669  
39.8102    -2.98494   -20.7659  
40.3873    -2.67105   -20.8603  
40.9727    -2.35498   -20.95    
41.5666    -2.03678   -21.0351  
42.1691    -1.71652   -21.1155  
42.7804    -1.45922   -21.1045  
43.4005    -1.20244   -21.0904  
44.0296    -0.946221  -21.0732  
44.6678    -0.690589  -21.0529  
45.3153    -0.435584  -21.0296  
45.9721    -0.165431  -21.0963  
46.6385    0.106369   -21.1597  
47.3145    0.379776   -21.2199  
48.0004    0.654754   -21.2766  
48.6961    0.931263   -21.33    
49.402     1.24334    -21.3581  
50.1181    1.55642    -21.3817  
50.8446    1.87047    -21.4008  
51.5816    2.1854     -21.4154  
52.3292    2.50117    -21.4254  
53.0878    2.82443    -21.3128  
53.8573    3.14484    -21.1955  
54.638     3.46232    -21.0736  
55.4299    3.77682    -20.9472  
56.2334    4.08827    -20.8164  
57.0485    4.40913    -20.8699  
57.8755    4.73249    -20.9191  
58.7144    5.05829    -20.9639  
59.5654    5.3865     -21.0042  
60.4289    5.71705    -21.0401  
61.3048    5.97896    -20.8935  
62.1934    6.23803    -20.7438  
63.0949    6.49425    -20.5912  
64.0095    6.74756    -20.4357  
64.9373    6.99796    -20.2773  
65.8786    7.21851    -20.2681  
66.8335    7.43962    -20.2567  
67.8023    7.66127    -20.243   
68.7851    7.88344    -20.2271  
69.7822    8.10611    -20.209   
70.7937    8.47452    -20.0182  
71.8198    8.83864    -19.8208  
72.8609    9.19835    -19.6168  
73.917     9.55353    -19.4063  
74.9885    9.90407    -19.1896  
76.0754    10.1555    -19.1354  
77.1782    10.4071    -19.0782  
78.2969    10.6589    -19.0179  
79.4318    10.9107    -18.9545  
80.5832    11.1626    -18.888   
81.7513    11.3033    -18.7005  
82.9363    11.4416    -18.5123  
84.1384    11.5774    -18.3236  
85.358     11.7109    -18.1343  
86.5953    11.8419    -17.9444  
87.8505    12.2004    -17.7669  
89.1239    12.5565    -17.5823  
90.4158    12.9101    -17.3908  
91.7264    13.2609    -17.1923  
93.056     13.6088    -16.9868  
94.4049    13.7989    -16.842   
95.7733    13.9875    -16.6951  
97.1615    14.1746    -16.546   
98.5699    14.36      -16.3949  
99.9987    14.5439    -16.2417  
101.448    14.7255    -16.1488  
102.919    14.9067    -16.0541  
104.411    15.0875    -15.9575  
105.924    15.2679    -15.8591  
107.459    15.4478    -15.7588  
109.017    15.6586    -15.5468  
110.597    15.8665    -15.332   
112.2      16.0715    -15.1144  
113.827    16.2735    -14.8941  
115.477    16.4725    -14.671   
117.151    16.7068    -14.4462  
118.849    16.9381    -14.2176  
120.571    17.1664    -13.9854  
122.319    17.3914    -13.7495  
124.092    17.6133    -13.5101  
125.891    17.6621    -13.3829  
127.716    17.7101    -13.2556  
129.567    17.7572    -13.1283  
131.445    17.8035    -13.0009  
133.35     17.849     -12.8735  
135.283    17.9864    -12.6368  
137.244    18.1208    -12.3987  
139.234    18.2521    -12.1592  
141.252    18.3802    -11.9183  
143.299    18.5052    -11.6762  
145.377    18.6422    -11.472   
147.484    18.7769    -11.2663  
149.622    18.9093    -11.059   
151.79     19.0394    -10.8502  
153.991    19.1673    -10.6398  
156.223    19.2358    -10.4806  
158.487    19.3029    -10.321   
160.785    19.3688    -10.1611  
163.115    19.4334    -10.0007  
165.48     19.4966    -9.83995  
167.878    19.5795    -9.67141  
170.312    19.6609    -9.50217  
172.78     19.7409    -9.33225  
175.285    19.8193    -9.16165  
177.826    19.8963    -8.9904   
180.403    20.0027    -8.84055  
183.018    20.108     -8.68959  
185.671    20.2122    -8.53751  
188.362    20.3153    -8.38433  
191.093    20.4173    -8.23004  
193.863    20.5047    -8.05592  
196.673    20.5906    -7.88091  
199.524    20.6751    -7.70501  
202.416    20.758     -7.52823  
205.35     20.8395    -7.35061  
208.326    20.8973    -7.17348  
211.346    20.9536    -6.99591  
214.41     21.0084    -6.81789  
217.518    21.0617    -6.63945  
220.671    21.1135    -6.46059  
223.869    21.232     -6.28097  
227.114    21.3492    -6.09974  
230.406    21.465     -5.91693  
233.746    21.5794    -5.73252  
237.134    21.6924    -5.54654  
240.572    21.6536    -5.36756  
244.059    21.6136    -5.18952  
247.596    21.5725    -5.01242  
251.185    21.5302    -4.83627  
254.826    21.4869    -4.66107  
258.52     21.5449    -4.47413  
262.267    21.6012    -4.28653  
266.069    21.656     -4.09829  
269.926    21.7092    -3.90942  
273.838    21.7607    -3.71993  
277.808    21.8066    -3.59468  
281.835    21.8518    -3.46902  
285.92     21.8964    -3.34296  
290.064    21.9402    -3.21649  
294.269    21.9833    -3.08963  
298.534    22.0038    -2.8666   
302.862    22.0221    -2.64348  
307.252    22.0381    -2.42029  
311.705    22.0518    -2.19703  
316.224    22.0633    -1.97375  
320.807    22.1256    -1.86289  
325.458    22.1875    -1.75144  
330.175    22.2489    -1.63941  
334.961    22.3099    -1.52679  
339.816    22.3705    -1.41359  
344.742    22.3532    -1.31996  
349.739    22.3357    -1.22649  
354.809    22.3177    -1.1332   
359.952    22.2994    -1.04007  
365.169    22.2807    -0.947119 
370.463    22.3902    -0.678137 
375.833    22.4968    -0.406634 
381.28     22.6005    -0.132631 
386.807    22.7014    0.143846  
392.414    22.7993    0.422773  
398.102    22.7441    0.578375  
403.873    22.688     0.73324   
409.727    22.631     0.887366  
415.666    22.573     1.04075   
421.691    22.5141    1.19338   
427.804    22.5572    1.33073   
434.005    22.5996    1.46865   
440.296    22.6413    1.60713   
446.678    22.6822    1.74617   
453.153    22.7223    1.88576   
459.721    22.6233    2.11306   
466.385    22.5223    2.33854   
473.145    22.4193    2.56219   
480.004    22.3143    2.784     
486.961    22.2075    3.00395   
494.02     22.2985    3.16535   
501.181    22.389     3.32816   
508.446    22.4788    3.49238   
515.816    22.5679    3.65801   
523.292    22.6564    3.82505   
530.878    22.6499    3.87967   
538.573    22.6432    3.93428   
546.38     22.6364    3.98887   
554.299    22.6294    4.04346   
562.334    22.6223    4.09804   
570.485    22.5855    4.357     
578.755    22.5457    4.61566   
587.144    22.503     4.87398   
595.654    22.4573    5.13193   
604.289    22.4087    5.38947   
613.048    22.4871    5.62079   
621.934    22.564     5.85412   
630.949    22.6392    6.08946   
640.095    22.7127    6.32681   
649.373    22.7844    6.56615   
658.786    22.8063    6.75206   
668.335    22.8268    6.9387    
678.023    22.8461    7.12606   
687.851    22.864     7.31413   
697.822    22.8806    7.5029    
707.937    22.8708    7.71064   
718.198    22.8592    7.91878   
728.609    22.8459    8.1273    
739.17     22.8308    8.33619   
749.885    22.814     8.54543   
760.754    22.8151    8.7132    
771.782    22.815     8.88138   
782.969    22.8139    9.04998   
794.318    22.8118    9.21899   
805.832    22.8085    9.3884    
817.513    22.8226    9.60219   
829.363    22.8351    9.81692   
841.384    22.846     10.0326   
853.58     22.8552    10.2491   
865.953    22.8628    10.4666   
878.505    22.8493    10.7354   
891.239    22.8331    11.0052   
904.158    22.8142    11.2759   
917.264    22.7925    11.5475   
930.56     22.768     11.8199   
944.049    22.7897    12.0817   
957.733    22.8093    12.3451   
971.615    22.8266    12.6102   
985.699    22.8418    12.8768   
999.987    22.8547    13.145    
1014.48    22.8552    13.4032   
1029.19    22.8534    13.6626   
1044.11    22.8494    13.9233   
1059.24    22.8432    14.1853   
1074.59    22.8348    14.4484   
1090.17    22.8335    14.7142   
1105.97    22.83      14.9814   
1122       22.8243    15.2499   
1138.27    22.8164    15.5197   
1154.77    22.8061    15.7909   
1171.51    22.7795    16.067    
1188.49    22.7504    16.3441   
1205.71    22.7188    16.6224   
1223.19    22.6846    16.9017   
1240.92    22.6477    17.1821   
1258.91    22.6124    17.5103   
1277.16    22.5735    17.84     
1295.67    22.5311    18.1713   
1314.45    22.4852    18.5042   
1333.5     22.4357    18.8386   
1352.83    22.445     19.1735   
1372.44    22.4515    19.5111   
1392.34    22.4552    19.8512   
1412.52    22.456     20.1939   
1432.99    22.4539    20.5393   
1453.77    22.4753    20.8878   
1474.84    22.4941    21.2392   
1496.22    22.5102    21.5938   
1517.9     22.5236    21.9514   
1539.91    22.5343    22.312    
1562.23    22.5928    22.6945   
1584.87    22.6491    23.0811   
1607.85    22.7031    23.4719   
1631.15    22.7548    23.867    
1654.8     22.8041    24.2663   
1678.78    22.7477    24.6751   
1703.12    22.6869    25.0866   
1727.8     22.6216    25.5007   
1752.85    22.5518    25.9173   
1778.26    22.4775    26.3366   
1804.03    22.4429    26.6522   
1830.18    22.406     26.9695   
1856.71    22.3668    27.2886   
1883.62    22.3252    27.6094   
1910.93    22.2812    27.932    
1938.63    22.2928    28.445    
1966.73    22.3001    28.964    
1995.24    22.303     29.489    
2024.16    22.3013    30.02     
2053.5     22.2951    30.557    
2083.26    22.2793    30.9882   
2113.46    22.2604    31.4231   
2144.1     22.2382    31.8618   
2175.18    22.2127    32.3043   
2206.71    22.1839    32.7506   
2238.69    22.1711    33.3218   
2271.14    22.1533    33.8996   
2304.06    22.1306    34.4841   
2337.46    22.1026    35.0753   
2371.34    22.0694    35.6732   
2405.72    22.1114    36.231    
2440.59    22.1505    36.7957   
2475.96    22.1866    37.3673   
2511.85    22.2196    37.9459   
2548.26    22.2494    38.5314   
2585.2     22.1505    39.1942   
2622.67    22.0441    39.8638   
2660.69    21.9302    40.5403   
2699.26    21.8087    41.2237   
2738.38    21.6792    41.914    
2778.08    21.6743    42.4526   
2818.35    21.6664    42.9966   
2859.2     21.6556    43.5461   
2900.64    21.6417    44.1011   
2942.69    21.6247    44.6616   
2985.34    21.6147    45.3051   
3028.62    21.6008    45.9561   
3072.52    21.583     46.6146   
3117.05    21.5611    47.2805   
3162.24    21.5351    47.954    
3208.07    21.4804    48.8216   
3254.58    21.4183    49.7015   
3301.75    21.3485    50.5937   
3349.61    21.2708    51.4985   
3398.16    21.1849    52.4159   
3447.42    21.1901    53.2057   
3497.39    21.1914    54.0058   
3548.09    21.1885    54.8163   
3599.52    21.1813    55.6374   
3651.69    21.1699    56.469    
3704.63    21.2296    57.1439   
3758.33    21.2879    57.8263   
3812.8     21.3448    58.5163   
3868.07    21.4002    59.2139   
3924.14    21.4542    59.9192   
3981.02    21.2615    61.0978   
4038.73    21.0549    62.2939   
4097.27    20.8341    63.5078   
4156.66    20.5986    64.7396   
4216.91    20.348     65.9896   
4278.04    20.4176    66.8559   
4340.05    20.4857    67.733    
4402.96    20.5522    68.6211   
4466.78    20.617     69.5203   
4531.53    20.6803    70.4306   
4597.21    20.6389    71.4818   
4663.85    20.5921    72.5471   
4731.45    20.5398    73.6267   
4800.04    20.4819    74.7206   
4869.61    20.4181    75.8292   
4940.2     20.3476    77.1747   
5011.81    20.2687    78.5418   
5084.46    20.1813    79.9308   
5158.16    20.0851    81.342    
5232.92    19.9798    82.7757   
5308.78    20.1403    83.6389   
5385.73    20.3019    84.5112   
5463.8     20.4647    85.3924   
5542.99    20.6287    86.2829   
5623.34    20.7939    87.1826   
5704.85    20.429     88.6649   
5787.55    20.0469    90.1668   
5871.44    19.6474    91.6884   
5956.54    19.2299    93.2299   
